##TITLE=Mon Jul 21 12:33:27 2025 (GMT-07:00)
##JCAMP-DX=5.01  $$ Nicolet v. 1
##DATATYPE=INFRARED SPECTRUM
##ORIGIN=Thermo Fisher Scientific Corporation
##OWNER=Nicolet
##LONGDATE=2025/07/21
##TIME=13:04:59
##SPECTROMETER/DATA SYSTEM=Nicolet iS50
##DATA PROCESSING=
Ratio against background
%Transmittance->Absorbance
Truncated
ElementMultiply or ElementDivide
##COMMENTS=
Number of sample scans: 64
Collection length: 756.19 sec
Sample gain: 1.0
Background collected on: Mon Jul 21 12:49:25 2025 (GMT-07:00);;
Number of background scans: 64
Background gain: 1.0
Sample spacing:  1.000
Number of scan points: 16672
Resolution points: 8192
Number of FFT points: 65536
Apodization: N-B medium;
Phase correction: Mertz;
Laser frequency: 15798.00 cm-1
Number of rejected sample scans: 0
Number of rejected background scans: 0
Bench serial number: AUP2410395;;
##RESOLUTION= 4.000
##XUNITS=1/CM
##YUNITS=ABSORBANCE
##FIRSTX=600.235291
##LASTX=4000.122070
##FIRSTY=-0.015932
##MAXX=4000.122070
##MINX=600.235291
##MAXY=0.307382
##MINY=-0.015932
##XFACTOR=1.000000
##YFACTOR=1.000000E-09
##NPOINTS=7053
##DELTAX=0.482117
##ZPD=8192
##XYDATA=(X++(Y..Y))
600.235 -15931830 -14856081 -13666745 -12521243 -11558170 -10861487 
603.128 -10435455 -10210291 -10067251 -9894918 -9640892 -9347124 -9134211 
606.503 -9146118 -9477921 -10124615 -10957842 -11757451 -12290233 -12403467 
609.878 -12084397 -11453236 -10707282 -10048279 -9626827 -9512672 -9689499 
613.252 -10081301 -10591438 -11135761 -11656177 -12120263 -12507238 
616.145 -12803575 -12994052 -13060838 -12980482 -12720146 -12241626 
619.038 -11517774 -10551890 -9411555 -8239738 -7232443 -6582469 -6416452 
622.413 -6751260 -7489053 -8437037 -9360452 -10045041 -10357168 -10271617 
625.787 -9859095 -9241524 -8548844 -7889841 -7338695 -6932182 -6674133 
629.162 -6539388 -6483898 -6453963 -6404470 -6311247 -6183413 -6055639 
632.537 -5970119 -5950314 -5985185 -6032308 -6044006 -5998976 -5928154 
635.912 -5907137 -6018486 -6295278 -6682812 -7036291 -7169318 -6931693 
639.287 -6289270 -5366527 -4412696 -3706121 -3439803 -3650597 -4213363 
642.662 -4898310 -5465319 -5757473 -5756819 -5569323 -5353469 -5234093 
646.036 -5251967 -5357887 -5455601 -5455732 -5323194 -5086554 -4807352 
649.411 -4541938 -4315993 -4128169 -3972571 -3859942 -3823520 -3896623 
652.786 -4080019 -4315731 -4499211 -4517148 -4306643 -3899349 -3422281 
656.161 -3049001 -2918097 -3068545 -3422873 -3819316 -4085008 -4112382 
659.536 -3907296 -3577353 -3267779 -3084929 -3054529 -3124473 -3212856 
662.910 -3264852 -3291489 -3361131 -3551062 -3894029 -4351423 -4817772 
666.285 -5149918 -5222635 -5027047 -4737810 -4571742 -4553414 -4654489 
669.660 -4891561 -5183119 -5383152 -5390908 -5198048 -4877996 -4539380 
673.035 -4266223 -4079001 -3938228 -3784401 -3588986 -3383127 -3245383 
676.410 -3259196 -3462090 -3815079 -4216119 -4543971 -4712802 -4702740 
679.785 -4561414 -4369661 -4198498 -4076539 -3990464 -3910579 -3825392 
683.159 -3764397 -3788310 -3954874 -4277444 -4696217 -5090550 -5320380 
686.534 -5283261 -4958785 -4420174 -3807295 -3277513 -2946071 -2851477 
689.909 -2950843 -3147499 -3334992 -3438554 -3435825 -3358205 -3271988 
693.284 -3254394 -3365603 -3631079 -4032782 -4511869 -4981485 -5350065 
696.659 -5546130 -5545213 -5378276 -5123362 -4875834 -4712048 -4655341 
700.033 -4666618 -4658587 -4536724 -4242370 -3783843 -3237786 -2720151 
703.408 -2340763 -2159929 -2165171 -2280911 -2403078 -2444463 -2367852 
706.783 -2193359 -1980966 -1798959 -1693554 -1673915 -1716195 -1782724 
710.158 -1842645 -1888669 -1932742 -1996402 -2094743 -2227248 -2376123 
713.533 -2514110 -2617208 -2674017 -2690779 -2691075 -2709713 -2784716 
716.908 -2947190 -3210587 -3563353 -3965085 -4350537 -4643507 -4778416 
720.282 -4724601 -4502884 -4180449 -3849827 -3596150 -3470078 -3476717 
723.657 -3580803 -3729216 -3875245 -3996473 -4097874 -4198990 -4315731 
727.032 -4446477 -4569840 -4656488 -4686285 -4659996 -4598660 -4530461 
730.407 -4471468 -4413122 -4322456 -4158494 -3897083 -3548269 -3162499 
733.782 -2817012 -2590497 -2536345 -2664072 -2938502 -3294448 -3659928 
737.156 -3977792 -4218383 -4379633 -4481372 -4553611 -4629575 -4735647 
740.531 -4885303 -5073881 -5276420 -5448959 -5541157 -5511223 -5348527 
743.906 -5082985 -4783856 -4541643 -4440312 -4530101 -4812202 -5239364 
747.281 -5733669 -6213366 -6615560 -6906355 -7077074 -7131738 -7074889 
750.656 -6909127 -6639741 -6285547 -5883962 -5487994 -5153192 -4918491 
754.031 -4795325 -4762226 -4778416 -4799749 -4796964 -4762423 -4706050 
757.405 -4643277 -4583480 -4524526 -4458317 -4381044 -4302215 -4265403 
760.780 -4276525 -4354211 -4506852 -4727256 -4994293 -5279432 -5554929 
764.155 -5799782 -5999630 -6143657 -6220356 -6218592 -6132223 -5970021 
767.530 -5761004 -5554111 -5406911 -5368720 -5462342 -5672713 -5950445 
770.905 -6227869 -6442048 -6555250 -6567946 -6511285 -6430980 -6366106 
774.279 -6332571 -6318497 -6292437 -6219605 -6078609 -5870593 -5619925 
777.654 -5364171 -5142551 -4985351 -4909514 -4920489 -5016239 -5189077 
781.029 -5425890 -5704303 -5992016 -6250209 -6441493 -6540106 -6539779 
784.404 -6454518 -6312880 -6145290 -5972505 -5799226 -5616916 -5413881 
787.779 -5187047 -4948368 -4721357 -4529445 -4382618 -4267962 -4153604 
791.154 -4002251 -3790150 -3521286 -3229465 -2963941 -2768189 -2657749 
794.528 -2611313 -2579364 -2506796 -2358328 -2133553 -1863926 -1592480 
797.903 -1344186 -1105731 -825015 -432746 121983 838005 1649193 2438107 
801.760 3076165 3469904 3594470 3503739 3307177 3128591 3060915 3136634 
805.617 3326375 3561796 3772411 3917191 4000283 4063523 4165946 4355936 
809.474 4652129 5040361 5479941 5920201 6315083 6632902 6859890 7000248 
813.331 7072650 7107542 7142672 7216748 7359412 7579059 7858193 8152565 
817.188 8406157 8569082 8615214 8551104 8411224 8242009 8081401 7942212 
821.045 7809241 7650680 7439357 7170563 6870224 6585198 6366221 6245732 
824.902 6226572 6286944 6395844 6532924 6698782 6911294 7187574 7522855 
828.759 7877796 8182310 8356771 8341436 8121066 7733478 7257244 6781533 
832.616 6374963 6065027 5836976 5651272 5467190 5261957 5037110 4809129 
836.472 4592854 4387029 4168722 3901076 3550071 3098456 2555611 1954561 
840.329 1339552 754719 232994 -205912 -552820 -806594 -971132 -1056782 
844.186 -1082299 -1074763 -1065806 -1085372 -1153651 -1276896 -1447662 
847.561 -1650777 -1869765 -2092633 -2312815 -2525903 -2725979 -2903220 
850.936 -3046632 -3149079 -3210949 -3243377 -3263471 -3288332 -3328383 
854.311 -3384409 -3450026 -3516619 -3579127 -3635712 -3684996 -3718703 
857.686 -3719229 -3662655 -3529470 -3318979 -3056964 -2794790 -2594087 
861.060 -2504787 -2543790 -2685378 -2869022 -3024620 -3102234 -3093615 
864.435 -3036498 -2996190 -3034853 -3181413 -3415016 -3672709 -3874720 
867.810 -3959241 -3907362 -3751159 -3557865 -3403214 -3339464 -3377209 
871.185 -3486052 -3611068 -3697908 -3713710 -3654901 -3543832 -3415180 
874.560 -3300729 -3220980 -3182728 -3184274 -3220092 -3282643 -3361263 
877.935 -3438816 -3492889 -3500481 -3446574 -3333973 -3185360 -3038769 
881.309 -2935276 -2904964 -2956405 -3076276 -3237227 -3409888 -3572029 
884.684 -3713217 -3829169 -3915603 -3961802 -3952412 -3873997 -3726456 
888.059 -3529207 -3321018 -3147828 -3047192 -3032912 -3089601 -3179867 
891.434 -3259919 -3296257 -3277973 -3217724 -3143059 -3082462 -3052325 
894.809 -3052851 -3071572 -3092266 -3103320 -3102300 -3093779 -3083811 
898.183 -3073973 -3059267 -3029523 -2975162 -2891766 -2782313 -2656827 
901.558 -2528736 -2412996 -2324219 -2276197 -2279856 -2339016 -2444265 
904.933 -2569648 -2673425 -2708889 -2638978 -2452074 -2170809 -1848518 
908.308 -1552203 -1338604 -1232426 -1217558 -1244684 -1252481 -1192313 
911.683 -1044949 -823262 -560597 -289627 -25313 241050 534449 879472 1285679 
916.022 1740202 2214484 2678548 3116277 3531998 3946781 4386092 4866021 
919.879 5387407 5938340 6504065 7078408 7667306 8285674 8947067 9655948 
923.736 10406507 11190223 12008666 12881828 13847254 14946535 16206374 
927.110 17622510 19156670 20749510 22345144 23913612 25461942 27027834 
930.485 28660302 30396252 32244508 34185112 36182496 38203476 40231652 
933.860 42269416 44330364 46426800 48561192 50723856 52899324 55071752 
937.235 57227280 59348924 61409376 63368036 65177112 66795588 68205288 
940.610 69419200 70477512 71432248 72327904 73184504 73994864 74733224 
943.984 75375192 75918216 76394256 76868120 77422632 78135432 79053464 
947.359 80178304 81466440 82842736 84224568 85544552 86764928 87876920 
950.734 88887928 89799824 90591848 91217408 91621512 91771824 91689352 
954.109 91458984 91207888 91056008 91058016 91162720 91211112 90981520 
957.484 90272400 88990888 87203536 85118080 83011496 81141688 79683504 
960.859 78705472 78181448 78024904 78130240 78405912 78787344 79227832 
964.233 79677848 80068208 80308960 80307448 79994272 79341184 78359168 
967.608 77077104 75517656 73684320 71570528 69179664 66545100 63733248 
970.983 60827116 57898124 54983672 52080876 49158468 46181888 43136708 
974.358 40042236 36948880 33923036 31028438 28310994 25791736 23468728 
977.733 21324052 19335008 17484610 15766975 14187924 12758290 11485127 
981.107 10362323 9367801 8466664 7622994 6810646 6022156 5267557 4567707 
984.964 3941799 3397733 2928062 2514218 2135662 1778328 1437843 1114832 
988.821 808759 512620 214065 -96442 -415070 -718513 -968090 -1122983 
992.678 -1160789 -1093073 -968388 -858449 -833647 -936616 -1166704 -1481477 
996.535 -1813973 -2099327 -2299764 -2413721 -2471941 -2518128 -2589048 
999.910 -2700954 -2847429 -3007806 -3160131 -3290568 -3395192 -3475468 
1003.285 -3530785 -3555236 -3541466 -3488616 -3410447 -3336801 -3306484 
1006.660 -3353536 -3493546 -3714892 -3981896 -4246110 -4464253 -4612331 
1010.034 -4691825 -4724896 -4743545 -4777072 -4844871 -4953544 -5100833 
1013.409 -5279792 -5482726 -5701295 -5924722 -6138822 -6327771 -6479589 
1016.784 -6591182 -6671653 -6740364 -6819893 -6929019 -7075607 -7256068 
1020.159 -7458504 -7669798 -7880958 -8089900 -8298612 -8507712 -8712975 
1023.534 -8904184 -9068635 -9197732 -9291895 -9362527 -9428577 -9510662 
1026.908 -9624202 -9775456 -9961243 -10171938 -10396475 -10626360 -10857577 
1030.283 -11089447 -11321838 -11552589 -11776703 -11986101 -12171621 
1033.175 -12324309 -12437696 -12508301 -12536694 -12526554 -12483576 
1036.067 -12413771 -12320831 -12206190 -12069800 -11914604 -11748776 
1038.960 -11587659 -11449686 -11349277 -11287683 -11247585 -11193501 
1041.852 -11080467 -10867014 -10530352 -10074826 -9530436 -8941676 -8350458 
1045.226 -7781379 -7235604 -6693416 -6125885 -5508180 -4829372 -4094953 
1048.601 -3321116 -2525376 -1718373 -898956 -55959 826154 1759863 2748666 
1052.457 3784410 4849033 5920033 6978732 8018315 9049024 10097141 11196444 
1056.314 12373191 13631390 14943723 16253326 17488992 18589308 19524890 
1059.688 20310074 20996206 21650264 22330354 23068114 23864952 24703484 
1063.062 25567746 26460246 27407380 28451206 29630908 30964350 32437514 
1066.437 34006804 35613652 37201124 38726384 40161280 41486632 42685592 
1069.811 43741296 44639480 45373048 45940688 46340192 46561624 46586340 
1073.186 46397264 45997004 45424992 44759720 44104968 43560344 43193724 
1076.560 43021780 43008536 43081048 43159908 43189224 43153832 43075600 
1079.934 42992660 42931608 42891084 42837836 42722404 42502152 42162312 
1083.309 41723804 41235456 40757848 40343372 40023272 39800280 39651492 
1086.683 39537300 39410152 39223160 38935200 38515720 37949200 37238308 
1090.057 36402768 35473304 34481888 33453864 32403416 31336490 30254238 
1093.432 29159120 28056610 26953932 25856262 24763392 23669524 22566920 
1096.806 21451548 20330248 19222364 18158962 17176850 16310843 15586216 
1100.181 15013311 14585395 14280469 14067709 13915401 13796528 13691365 
1103.555 13587560 13478209 13363351 13252212 13165145 13133964 13194928 
1106.929 13379411 13700358 14144996 14673913 15232746 15770789 16260033 
1110.304 16705269 17141518 17617436 18177828 18845610 19615286 20458286 
1113.678 21335570 22212188 23064654 23882420 24663782 25413072 26138636 
1117.053 26854980 27583454 28347670 29167552 30049806 30983316 31942372 
1120.427 32897834 33831044 34744332 35658716 36601852 37590100 38616384 
1123.801 39648408 40642744 41564728 42406428 43191052 43961700 44761152 
1127.176 45613164 46512940 47432436 48336112 49198472 50013212 50789476 
1130.550 51540868 52274760 52989568 53681784 54359256 55048396 55792352 
1133.925 56637120 57612980 58719196 59919432 61153276 62356868 63483836 
1137.299 64515852 65457432 66322736 67123712 67867512 68563152 69232352 
1140.673 69914032 70658304 71509896 72489456 73582960 74746520 75925448 
1144.048 77080032 78203024 79319184 80467288 81674784 82937936 84217528 
1147.422 85451920 86579816 87561120 88381688 89046936 89567680 89951616 
1150.797 90205424 90344064 90397224 90406856 90411016 90424488 90425792 
1154.171 90360544 90162888 89785760 89226272 88530920 87778320 87047400 
1157.545 86387296 85801640 85254104 84691832 84073544 83389408 82662176 
1160.920 81930352 81223976 80544304 79857296 79104184 78224568 77182608 
1164.294 75980416 74658408 73279104 71906904 70586648 69334216 68136904 
1167.668 66964684 65786944 64585516 63360176 62124408 60893976 59675728 
1171.043 58460316 57226376 55950884 54623816 53257152 51885516 50555828 
1174.417 49309888 48167484 47119592 46131108 45155052 44147296 43079000 
1177.792 41940228 40736700 39481708 38189512 36871968 35540252 34207588 
1181.166 32889042 31597506 30338048 29102496 27873420 26630300 25361186 
1184.540 24080676 22793768 21520064 20278238 19077688 17916430 16786160 
1187.915 15682530 14613700 13602261 12678418 11866136 11171048 10575244 
1191.289 10042713 9532781 9014416 8475854 7925407 7383609 6872446 6407109 
1195.146 5992894 5629520 5317332 5059938 4862368 4725178 4637426 4575944 
1199.002 4509849 4411697 4266753 4079812 3873193 3678068 3522679 3423247 
1202.859 3380902 3386446 3427555 3495155 3586084 3700424 3836555 3986806 
1206.715 4137110 4270768 4373942 4441120 4477408 4496692 4516646 4554112 
1210.571 4621017 4725011 4870343 5060675 5300225 5593102 5942404 6348536 
1214.428 6808189 7313986 7853706 8410042 8961273 9484249 9958593 10373148 
1218.284 10730427 11048912 11360012 11702343 12111753 12613774 13217506 
1221.659 13915675 14690056 15518837 16384158 17277344 18199560 19159266 
1225.033 20166356 21226932 22339460 23493874 24673744 25860868 27040280 
1228.407 28204306 29353842 30496654 31641838 32795378 33956496 35118472 
1231.782 36271276 37406276 38519088 39609456 40678516 41726064 42747884 
1235.156 43737852 44689496 45599212 46464296 47280236 48036824 48717888 
1238.531 49306284 49792876 50184448 50505020 50787688 51060440 51333068 
1241.905 51593660 51817600 51986640 52108484 52226068 52410068 52737752 
1245.279 53266328 54015380 54963476 56060424 57249280 58486436 59748684 
1248.654 61024180 62290508 63494496 64547488 65342648 65791144 65857576 
1252.028 65574796 65028644 64319620 63526444 62684984 61794424 60841412 
1255.403 59827316 58783796 57767904 56842224 56051716 55410596 54903504 
1258.777 54499840 54173076 53911568 53718416 53596456 53531236 53480344 
1262.151 53378116 53154872 52761768 52189224 51467596 50649604 49786260 
1265.526 48904596 48000892 47048356 46014944 44881060 43649252 42341804 
1268.900 40989920 39622452 38259236 36909592 35578372 34270684 32996350 
1272.275 31768478 30599460 29495990 28454746 27463180 26502014 25551754 
1275.649 24598662 23638804 22679108 21734798 20825110 19968214 19176512 
1279.023 18453800 17795834 17191880 16628215 16090930 15568734 15054678 
1282.398 14547225 14049878 13570774 13119996 12706087 12332556 11995552 
1285.772 11683861 11382869 11079162 10767312 10452393 10148997 9875031 
1289.146 9643989 9458377 9307270 9171004 9028793 8867081 8684539 8490754 
1293.003 8301277 8129033 7978995 7846823 7723123 7600099 7477581 7363759 
1296.859 7272811 7217321 7202700 7224531 7270688 7327094 7381992 7430222 
1300.716 7471716 7508999 7544027 7576361 7604651 7628187 7648556 7669768 
1304.572 7695230 7725517 7757123 7784277 7801549 7808566 7811433 7820778 
1308.429 7847802 7899020 7973900 8065704 8166610 8272166 8384098 8508257 
1312.285 8651751 8816291 8996655 9182273 9362994 9533629 9696977 9861100 
1316.142 10033796 10217585 10408035 10596260 10776958 10952669 11136984 
1319.516 11349264 11605308 11908737 12247139 12596105 12930708 13235337 
1322.890 13510954 13774056 14049296 14358924 14712917 15107027 15527147 
1326.265 15957367 16387738 16816572 17248278 17686972 18131810 18575198 
1329.639 19006062 19415108 19799950 20165072 20519386 20871136 21222686 
1333.014 21569264 21901584 22210236 22490388 22743522 22976332 23197870 
1336.388 23416410 23637998 23868838 24118818 24404130 24746380 25165366 
1339.762 25667352 26238022 26842292 27435544 27977586 28443212 28826298 
1343.137 29140692 29415248 29686784 29988134 30338156 30736538 31165546 
1346.511 31597186 32005108 32374750 32709484 33030740 33369378 33754400 
1349.885 34202172 34712428 35270640 35856596 36454480 37060404 37682424 
1353.260 38333496 39021860 39742252 40475120 41194544 41880748 42530912 
1356.634 43161520 43798464 44462596 45156156 45859628 46539680 47167680 
1360.009 47737856 48278488 48848344 49519616 50352072 51367300 52536184 
1363.383 53790980 55058172 56291436 57483496 58656044 59840172 61061708 
1366.757 62338736 63688284 65135612 66717112 68470544 70415984 72536952 
1370.132 74774192 77038368 79239488 81317104 83258944 85096152 86879816 
1373.506 88650864 90418728 92162520 93857152 95505128 97147280 98843952 
1376.881 100640936 102541552 104500072 106441384 108296808 110035440 
1379.773 111662048 113177376 114528976 115586144 116171720 116146600 
1382.665 115507328 114421680 113167440 112014840 111125872 110512400 
1385.558 110055672 109572264 108911592 108041352 107065408 106156352 
1388.450 105458224 105028928 104840128 104816592 104879944 104976776 
1391.342 105076864 105143680 105096832 104790064 104032016 102663368 
1394.235 100661288 98193368 95550288 92996184 90654392 88490664 86370400 
1397.609 84139776 81703976 79075048 76361496 73695112 71149800 68711352 
1400.983 66310348 63875324 61374076 58827616 56301580 53879120 51626388 
1404.358 49567856 47684380 45934572 44285120 42724340 41255604 39877528 
1407.732 38568696 37288200 35990840 34650444 33277646 31919230 30638214 
1411.107 29482550 28462952 27549278 26687200 25823700 24928994 24004962 
1414.481 23077022 22178958 21334318 20550024 19818228 19127930 18476858 
1417.855 17882972 17379688 16987578 16679032 16374078 15991123 15499916 
1421.230 14931754 14351698 13825533 13400699 13098003 12910398 12803230 
1424.604 12726319 12634582 12508078 12353486 12189135 12028627 11875194 
1427.979 11728316 11592615 11484616 11428416 11446412 11548140 11722631 
1431.353 11936560 12144088 12304025 12398283 12438140 12456246 12490004 
1434.727 12568546 12712911 12941870 13265227 13652828 14025273 14303070 
1438.102 14464180 14544415 14597560 14663391 14756415 14873083 15002507 
1441.476 15136944 15275781 15422559 15580858 15748078 15915604 16073119 
1444.850 16215697 16348893 16489357 16661473 16889492 17188950 17554814 
1448.225 17955242 18342872 18678578 18952168 19181706 19399134 19637402 
1451.599 19921486 20263864 20664228 21113972 21604190 22127142 22668530 
1454.974 23203394 23710114 24210036 24790754 25545324 26463204 27443238 
1458.348 28411126 29369938 30359582 31404626 32492142 33572512 34567664 
1461.722 35370916 35838244 35786504 35023316 33437364 31112720 28369598 
1465.097 25648302 23317458 21567034 20429668 19856656 19775780 20119502 
1468.471 20833454 21877992 23228840 24870992 26781108 28892730 31044774 
1471.846 32943442 34203716 34509364 33786452 32215674 30097710 27727388 
1475.220 25352686 23178228 21363692 19993436 19051550 18435200 18007354 
1478.594 17651910 17304790 16957428 16640849 16398473 16254701 16193306 
1481.969 16162112 16100869 15972801 15778348 15546378 15313364 15102807 
1485.343 14912550 14715625 14474834 14163173 13779768 13351528 12923027 
1488.718 12538192 12225940 11991158 11814210 11660035 11494891 11301753 
1492.092 11082153 10845508 10595174 10321604 10006296 9633995 9210296 
1495.466 8769969 8363831 8026516 7752738 7506100 7250809 6977789 6703897 
1499.323 6454222 6238606 6040029 5820891 5543700 5193075 4786515 4367817 
1503.179 3987074 3675428 3423714 3173314 2836471 2363342 1832561 1439539 
1507.036 1314492 1392733 1522391 1604959 1619426 1582877 1519764 1450443 
1510.892 1388944 1340283 1295516 1230849 1116859 932763 678286 373979 56662 
1515.231 -227173 -426656 -503643 -459226 -348231 -249195 -215483 -254527 
1519.087 -345914 -466177 -591106 -679974 -676302 -565031 -418844 -337008 
1522.943 -354753 -436222 -525982 -588724 -619065 -631638 -647453 -681463 
1526.800 -733398 -785328 -811026 -791546 -729230 -648048 -583760 -565925 
1530.656 -606823 -701477 -832158 -968256 -1057046 -1032619 -868435 -627999 
1534.513 -423809 -321744 -306481 -320387 -313732 -269892 -209356 -174548 
1538.369 -206839 -320188 -490206 -668726 -815623 -919225 -994009 -1062302 
1542.226 -1136368 -1211280 -1268471 -1282974 -1232789 -1112176 -945708 
1545.600 -785328 -685598 -674879 -747622 -877926 -1032189 -1171991 -1254728 
1549.457 -1245906 -1143803 -984620 -816284 -670148 -557056 -478986 -437248 
1553.313 -431290 -458002 -515590 -605830 -726320 -867344 -1025016 -1219639 
1557.169 -1492308 -1847066 -2127947 -1995577 -1287666 -362500 283587 485021 
1561.026 357630 79164 -222305 -483090 -684771 -827562 -912248 -934632 
1564.882 -896707 -818103 -731811 -669255 -650331 -680172 -746695 -814168 
1568.739 -822766 -718778 -505265 -262408 -94222 -59239 -146229 -296845 
1572.595 -442114 -528464 -533527 -468957 -372300 -285687 -226080 -181006 
1576.452 -138511 -115754 -138842 -210350 -307110 -401564 -476305 -528530 
1580.308 -563277 -588095 -608709 -629024 -649041 -663664 -663300 -637660 
1584.165 -580650 -495899 -398982 -313732 -263700 -262309 -308103 -384714 
1588.021 -465548 -523401 -540510 -515557 -462801 -405139 -363858 -352436 
1591.877 -372432 -415567 -467203 -513803 -545639 -559803 -558115 -545474 
1595.734 -528332 -513638 -508309 -518072 -545904 -591304 -650199 -716098 
1599.590 -780697 -835928 -875578 -896641 -898824 -883481 -853290 -811853 
1603.447 -765119 -721358 -689568 -677427 -688079 -720233 -768493 -825511 
1607.303 -882489 -930797 -963330 -975000 -962933 -926036 -868535 -802295 
1611.160 -747192 -726286 -755428 -833977 -942732 -1050799 -1127742 -1153717 
1615.016 -1119612 -1023397 -868898 -682323 -523202 -457108 -507283 -641961 
1618.873 -804246 -946865 -1049246 -1118092 -1174503 -1238175 -1310030 
1622.247 -1365095 -1364930 -1290705 -1169249 -1061575 -1023099 -1072747 
1625.621 -1189604 -1328463 -1435245 -1464372 -1394524 -1241512 -1055493 
1628.996 -895451 -800343 -776596 -805304 -859871 -918662 -973215 -1027694 
1632.852 -1097006 -1201301 -1356936 -1555504 -1737316 -1802160 -1692629 
1636.227 -1475897 -1287005 -1201202 -1195849 -1200475 -1156857 -1047626 
1639.601 -899187 -766012 -701774 -731480 -838607 -975529 -1088843 -1144927 
1643.457 -1144167 -1121595 -1133426 -1229849 -1422233 -1657379 -1827567 
1646.832 -1835947 -1679889 -1459121 -1289284 -1215575 -1204044 -1184647 
1650.206 -1102360 -952585 -797962 -745902 -847701 -955329 -827363 -504106 
1654.063 -262971 -237108 -361209 -520786 -641597 -701808 -712889 -697805 
1657.919 -675805 -656286 -642523 -637263 -646162 -676401 -729826 -793729 
1661.776 -835763 -814631 -709251 -546831 -395307 -320089 -347867 -462271 
1665.632 -624293 -791380 -931260 -1024091 -1062104 -1046800 -985017 -885333 
1669.488 -758107 -620455 -500400 -429767 -428344 -492887 -600040 -718050 
1673.345 -816979 -867080 -831497 -678254 -425199 -163982 -3942 11729 -83821 
1677.683 -226345 -366374 -483222 -581477 -677790 -787775 -913934 -1042866 
1681.540 -1155303 -1241776 -1302036 -1309304 -1169083 -783476 -236678 206507 
1685.396 363035 252786 662 -275587 -504239 -655856 -725691 -721986 -659429 
1689.735 -558975 -448105 -357534 -312341 -321281 -370280 -427880 -461047 
1693.591 -452242 -407258 -342239 -261514 -161498 -70702 -47842 -107307 
1697.448 -192532 -224491 -156530 15904 289588 678087 1125961 1431228 1417332 
1701.786 1114434 684823 279542 -22464 -204918 -282574 -272243 -186769 -46318 
1706.125 119829 288295 450027 605515 755051 896969 1029069 1151176 1263613 
1710.463 1363782 1443229 1488776 1486648 1431992 1336394 1230617 1153501 
1714.320 1136924 1189715 1295549 1424513 1555842 1700616 1900446 2187475 
1718.176 2537114 2871591 3115342 3236568 3248920 3188768 3096721 3007429 
1722.032 2948278 2936569 2978136 3064052 3175250 3291352 3399236 3495055 
1725.889 3580471 3656382 3718302 3756302 3759376 3721845 3650033 3562498 
1729.745 3487038 3449831 3469269 3550672 3685921 3855710 4042353 4254439 
1733.602 4536868 4912129 5292075 5521920 5527592 5362113 5135370 4941888 
1737.458 4832582 4818945 4888170 5012171 5146199 5233585 5232109 5138018 
1741.315 4983949 4818476 4685688 4615090 4613918 4666430 4741424 4805879 
1745.171 4835530 4817337 4749062 4639469 4508376 4383314 4291448 4253268 
1749.028 4279736 4372871 4526322 4722331 4927813 5094936 5176678 5151095 
1752.884 5032450 4859621 4675104 4509649 4379331 4290310 4244368 4237241 
1756.740 4253402 4267790 4257585 4212649 4136307 4038106 3928191 3816799 
1760.597 3717333 3646458 3617890 3628782 3656382 3667709 3638639 3563066 
1764.453 3450833 3318696 3182326 3053641 2941906 2854047 2789548 2736162 
1768.310 2672347 2579209 2451435 2298083 2138459 2000029 1919316 1928002 
1772.166 2022765 2143154 2202295 2146350 1982054 1759730 1540812 1373321 
1776.023 1280329 1256270 1274613 1301897 1313795 1304323 1286144 1282622 
1779.879 1315822 1391005 1489042 1572602 1605525 1567946 1459951 1296978 
1783.736 1104402 910981 741343 605681 497129 398122 291876 167690 22067 
1788.074 -143811 -324327 -510990 -691883 -852265 -974438 -1038536 -1027330 
1791.931 -941079 -811786 -699459 -660918 -717487 -848660 -1009348 -1153354 
1795.787 -1248285 -1283338 -1269363 -1232294 -1201499 -1197997 -1228065 
1799.161 -1283041 -1344748 -1392905 -1414241 -1407272 -1379430 -1338769 
1802.536 -1288293 -1227602 -1159599 -1094726 -1050105 -1042569 -1079721 
1805.910 -1154279 -1245807 -1327835 -1379694 -1394259 -1381907 -1365524 
1809.285 -1369422 -1405291 -1465825 -1525789 -1554118 -1528761 -1449941 
1812.659 -1339298 -1229551 -1147934 -1106558 -1100113 -1110953 -1116439 
1816.033 -1097766 -1048452 -976620 -900312 -838772 -805040 -803849 -834837 
1819.890 -895087 -981414 -1091652 -1221754 -1364632 -1510106 -1646387 
1823.264 -1761077 -1842381 -1881906 -1880784 -1853566 -1820572 -1796451 
1826.639 -1785496 -1785034 -1792327 -1806020 -1822683 -1832285 -1819945 
1830.013 -1776124 -1704346 -1621465 -1548934 -1503040 -1492242 -1516610 
1833.387 -1569437 -1638597 -1709198 -1767248 -1805822 -1827204 -1841457 
1836.762 -1859801 -1891077 -1937723 -1999007 -2072749 -2159270 -2260013 
1840.136 -2373619 -2492795 -2602618 -2684489 -2718406 -2686597 -2580253 
1843.510 -2410723 -2219534 -2067703 -2003921 -2036275 -2131607 -2235390 
1846.885 -2298380 -2291623 -2213699 -2087192 -1948707 -1834297 -1766786 
1850.259 -1750022 -1771835 -1810046 -1842282 -1850563 -1825917 -1768304 
1853.634 -1685731 -1591358 -1500398 -1426758 -1381345 -1368959 -1388777 
1857.008 -1434254 -1495742 -1562669 -1627208 -1683784 -1730188 -1765565 
1860.382 -1789984 -1802622 -1804272 -1796352 -1781338 -1761572 -1738537 
1863.757 -1711772 -1681078 -1647707 -1617635 -1601295 -1611990 -1660349 
1867.131 -1748273 -1862837 -1976381 -2054974 -2074463 -2032318 -1947322 
1870.506 -1845120 -1744048 -1649490 -1559070 -1470679 -1389503 -1328562 
1873.880 -1305835 -1334178 -1413052 -1524172 -1636154 -1714049 -1733686 
1877.254 -1690616 -1603671 -1506110 -1430589 -1395118 -1397926 -1420318 
1880.629 -1440199 -1441850 -1423917 -1396538 -1371899 -1353633 -1333418 
1884.003 -1295561 -1229584 -1140730 -1054799 -1008488 -1033677 -1140796 
1887.378 -1311979 -1503172 -1658204 -1727085 -1691243 -1573861 -1427847 
1890.752 -1305571 -1234441 -1210123 -1209000 -1205299 -1186134 -1156328 
1894.126 -1134286 -1137855 -1171463 -1219573 -1254232 -1249177 -1195155 
1897.501 -1105269 -1008323 -932814 -893335 -882059 -876173 -849884 -790983 
1901.357 -709614 -635244 -601694 -632002 -727411 -868832 -1025182 -1168621 
1905.214 -1284329 -1372791 -1442874 -1500926 -1542331 -1553127 -1517370 
1908.588 -1429565 -1302234 -1165052 -1052088 -987298 -975893 -1007695 
1911.962 -1066599 -1142977 -1238175 -1365029 -1534308 -1746128 -1982384 
1915.337 -2210271 -2388645 -2481989 -2469634 -2356615 -2173314 -1965068 
1918.711 -1774013 -1627043 -1532855 -1491846 -1503337 -1567786 -1683157 
1922.086 -1838521 -2011804 -2178623 -2323164 -2449207 -2575972 -2726934 
1925.460 -2910889 -3113090 -3293988 -3404660 -3408507 -3305136 -3135493 
1928.834 -2969239 -2874881 -2891437 -3011524 -3187761 -3353799 -3456699 
1932.209 -3480563 -3452228 -3422544 -3440263 -3526413 -3667320 -3822436 
1935.583 -3949030 -4022572 -4045880 -4041415 -4033438 -4032257 -4031337 
1938.958 -4015842 -3982158 -3948702 -3954546 -4040266 -4221829 -4467336 
1942.332 -4698314 -4818035 -4761276 -4527674 -4186684 -3841354 -3589808 
1945.706 -3488583 -3536175 -3674351 -3820695 -3908281 -3920036 -3890417 
1949.081 -3885360 -3964757 -4156328 -4438803 -4755180 -5038871 -5245060 
1952.455 -5364662 -5414077 -5414470 -5372614 -5272361 -5085801 -4792409 
1955.829 -4399838 -3945747 -3491870 -3105293 -2845914 -2749850 -2825011 
1959.204 -3052423 -3397987 -3822108 -4283908 -4734172 -5112949 -5353698 
1962.578 -5405274 -5256648 -4952364 -4580824 -4248866 -4050311 -4037805 
1965.953 -4198990 -4457333 -4695037 -4800732 -4709786 -4422142 -3992632 
1969.327 -3518460 -3111873 -2878962 -2889232 -3162137 -3667222 -4341319 
1972.701 -5105188 -5878241 -6585276 -7169970 -7599216 -7869243 -7992224 
1976.076 -7989296 -7878777 -7685945 -7446388 -7214715 -7048973 -6989212 
1979.450 -7034759 -7140897 -7229249 -7214161 -7033618 -6683464 -6227216 
1982.825 -5782715 -5479552 -5415746 -5621822 -6050084 -6579923 -7050244 
1986.199 -7307549 -7255123 -6877101 -6237863 -5452330 -4657767 -3978153 
1989.573 -3498443 -3243805 -3178518 -3224269 -3290305 -3304116 -3234136 
1992.948 -3093680 -2933861 -2818625 -2802197 -2912567 -3151118 -3496735 
1996.322 -3914060 -4353456 -4756950 -5060519 -5204236 -5143958 -4866529 
1999.697 -4401905 -3837018 -3304577 -2957787 -2917504 -3227032 -3832092 
2003.071 -4600167 -5360996 -5959563 -6299197 -6371298 -6246355 -6034465 
2006.445 -5826852 -5662280 -5525879 -5385149 -5227808 -5089797 -5042244 
2009.820 -5152668 -5439928 -5854901 -6291555 -6630506 -6787470 -6761634 
2013.194 -6637293 -6544218 -6591900 -6813957 -7149143 -7465832 -7611783 
2016.568 -7485699 -7082778 -6499403 -5878863 -5356284 -5014306 -4879995 
2019.943 -4932218 -5127488 -5410020 -5720458 -5989891 -6143559 -6107067 
2023.317 -5838654 -5357887 -4769305 -4239745 -3940953 -3975296 -4331839 
2026.692 -4882714 -5425170 -5748906 -5717220 -5320183 -4672616 -3957830 
2030.066 -3352254 -2970226 -2850819 -2964369 -3242160 -3603050 -3972046 
2033.440 -4281906 -4473927 -4496883 -4327607 -3991384 -3581231 -3234991 
2036.815 -3091048 -3227361 -3628911 -4184289 -4726142 -5085015 -5158104 
2040.189 -4945812 -4548528 -4110905 -3755265 -3537358 -3439112 -3396737 
2043.564 -3352254 -3291160 -3256959 -3326772 -3567461 -3991023 -4540036 
2046.938 -5093792 -5511320 -5682883 -5572790 -5224141 -4734565 -4212575 
2050.313 -3745608 -3381023 -3129867 -2975722 -2889692 -2838639 -2792091 
2053.688 -2726538 -2632885 -2519545 -2417576 -2372630 -2432964 -2628669 
2057.063 -2959531 -3386973 -3842963 -4244634 -4523346 -4643573 -4613085 
2060.439 -4473108 -4280561 -4086123 -3926866 -3822633 -3783744 -3816228 
2063.814 -3924633 -4107426 -4350340 -4620101 -4870428 -5049777 -5121398 
2067.189 -5074732 -4929138 -4723684 -4503310 -4302444 -4140017 -4017484 
2070.564 -3927096 -3858234 -3802532 -3752900 -3701062 -3634102 -3538607 
2073.940 -3403871 -3232228 -3040677 -2857402 -2712347 -2625804 -2600576 
2077.315 -2624157 -2674840 -2733684 -2793967 -2864150 -2959696 -3093878 
2080.690 -3264260 -3449796 -3612185 -3708651 -3706909 -3595657 -3389077 
2084.065 -3122137 -2840022 -2589509 -2407131 -2314760 -2315156 -2394412 
2087.441 -2526496 -2681196 -2831595 -2959268 -3058049 -3132993 -3194240 
2090.816 -3250218 -3298921 -3325753 -3307141 -3221539 -3059991 -2835644 
2094.191 -2583317 -2349463 -2174501 -2078783 -2055304 -2076244 -2105625 
2097.566 -2116308 -2099327 -2065494 -2039177 -2045180 -2096557 -2192831 
2100.942 -2321384 -2467361 -2618723 -2768913 -2911613 -3035775 -3122598 
2104.317 -3150460 -3104241 -2988852 -2830541 -2673227 -2560227 -2516514 
2107.692 -2535720 -2583218 -2608843 -2572381 -2462419 -2305136 -2153599 
2111.067 -2066582 -2081685 -2200018 -2382615 -2567210 -2691240 -2716298 
2114.443 -2639999 -2493256 -2324483 -2180963 -2092633 -2067868 -2097084 
2117.818 -2165237 -2262057 -2388711 -2554495 -2768551 -3028075 -3314244 
2121.193 -3592568 -3822732 -3970306 -4018797 -3973064 -3859121 -3714301 
2124.568 -3575973 -3470439 -3404135 -3363959 -3323549 -3255085 -3141841 
2127.944 -2985298 -2807201 -2641678 -2522246 -2466702 -2471578 -2512495 
2131.319 -2556670 -2576499 -2565794 -2543856 -2550180 -2625442 -2791959 
2134.694 -3038407 -3321642 -3577879 -3751389 -3815342 -3784960 -3709275 
2138.069 -3649874 -3653357 -3733552 -3865065 -3996210 -4069909 -4050082 
2141.445 -3932908 -3747710 -3540743 -3358830 -3230847 -3164506 -3148651 
2144.820 -3166282 -3204173 -3259426 -3333249 -3425010 -3520103 -3593784 
2148.195 -3617837 -3578306 -3486479 -3383751 -3331605 -3391313 -3599041 
2151.570 -3950310 -4394197 -4851523 -5244503 -5525127 -5690143 -5783598 
2154.946 -5876084 -6039105 -6319477 -6726498 -7235408 -7808847 -8414256 
2158.321 -9032713 -9646920 -10223981 -10696969 -10973414 -10960362 -10599943 
2161.696 -9896019 -8936352 -7878777 -6917768 -6217613 -5853790 -5786181 
2165.071 -5882851 -5976557 -5932011 -5695441 -5315241 -4913478 -4631279 
2168.447 -4568365 -4743939 -5093563 -5499445 -5830546 -5993421 -5960020 
2171.822 -5771925 -5515181 -5285716 -5152242 -5141961 -5235173 -5380436 
2175.197 -5516490 -5595557 -5597127 -5530034 -5421375 -5306829 -5211340 
2178.572 -5143697 -5090910 -5025475 -4913773 -4735384 -4491964 -4214314 
2181.948 -3953069 -3764529 -3687756 -3728493 -3858661 -4028941 -4187406 
2185.323 -4301033 -4360837 -4384356 -4403381 -4448839 -4541052 -4685990 
2188.698 -4877112 -5101258 -5336810 -5554210 -5710975 -5755903 -5641348 
2192.073 -5341261 -4868888 -4289026 -3706548 -3242160 -2987305 -2973056 
2195.448 -3154868 -3434642 -3699616 -3869630 -3924240 -3910448 -3913207 
2198.824 -4012231 -4242074 -4572923 -4921472 -5185508 -5282640 -5182136 
2202.199 -4912496 -4545610 -4162761 -3827034 -3568184 -3389340 -3279519 
2205.574 -3232294 -3251665 -3346698 -3520366 -3758288 -4024739 -4272457 
2208.949 -4453430 -4536396 -4514230 -4404594 -4240795 -4061965 -3904537 
2212.325 -3799379 -3769062 -3827363 -3974115 -4192952 -4451659 -4709230 
2215.700 -4925567 -5075977 -5156565 -5184166 -5186229 -5185410 -5187146 
2219.075 -5177519 -5132367 -5032942 -4879635 -4698675 -4533675 -4428537 
2222.450 -4411581 -4485537 -4627936 -4804828 -4980896 -5130009 -5234879 
2225.826 -5283720 -5263425 -5162589 -4978374 -4727617 -4451495 -4211197 
2229.201 -4066790 -4053660 -4166239 -4342730 -4503146 -4574529 -4515279 
2232.576 -4329575 -4061243 -3773989 -3524737 -3348867 -3255710 -3240878 
2235.951 -3297342 -3425470 -3629009 -3904275 -4228326 -4556725 -4832518 
2239.327 -5007297 -5060519 -5010965 -4909056 -4815216 -4770878 -4780447 
2242.702 -4809580 -4803649 -4714670 -4528822 -4274097 -4011148 -3806309 
2246.077 -3704905 -3712199 -3796686 -3905358 -3988626 -4019355 -4000150 
2249.452 -3954349 -3909201 -3879252 -3860040 -3831731 -3773069 -3674713 
2252.828 -3547283 -3417547 -3317105 -3268601 -3276165 -3322958 -3379280 
2256.203 -3412353 -3399072 -3329797 -3210587 -3057622 -2893774 -2741816 
2259.578 -2623268 -2554199 -2543691 -2591782 -2689593 -2820007 -2962361 
2262.953 -3097102 -3211113 -3300170 -3369417 -3427607 -3482765 -3536142 
2266.329 -3582512 -3609261 -3603313 -3554316 -3458737 -3320656 -3150723 
2269.704 -2963480 -2776848 -2607196 -2469733 -2374640 -2325998 -2320692 
2273.079 -2350353 -2403671 -2470557 -2544021 -2621819 -2703226 -2786263 
2276.454 -2863986 -2923955 -2950020 -2928826 -2854209 -2731971 -2578969 
2279.830 -2418960 -2275209 -2164479 -2093061 -2058436 -2050654 -2058799 
2283.205 -2072485 -2085180 -2091775 -2089599 -2076046 -2051050 -2016322 
2286.580 -1977206 -1939537 -1908627 -1885436 -1865839 -1842678 -1808462 
2289.955 -1758899 -1696194 -1628067 -1563494 -1509577 -1466386 -1427385 
2293.331 -1382898 -1324334 -1250135 -1167299 -1089669 -1031561 -1002240 
2296.706 -999959 -1013281 -1023992 -1015628 -980554 -923093 -858812 -808082 
2300.563 -787412 -803287 -848396 -905172 -952188 -972223 -958007 -915191 
2304.421 -857854 -803684 -766839 -753873 -762870 -784865 -808909 -825445 
2308.278 -828653 -817177 -793034 -759926 -722284 -685135 -653706 -633524 
2312.135 -627535 -635807 -652614 -668329 -672100 -656948 -623730 -582039 
2315.993 -547261 -534024 -548849 -586904 -631572 -661249 -657775 -614665 
2319.850 -540278 -455420 -383920 -343695 -339292 -362302 -396433 -426954 
2323.708 -446549 -457207 -465747 -477033 -490272 -498646 -494310 -475312 
2327.565 -449396 -433640 -446152 -497090 -579558 -670148 -737268 -755461 
2331.423 -717752 -639843 -552456 -488088 -465648 -483851 -523136 -557321 
2335.280 -565329 -542131 -499870 -461808 -451150 -480641 -549776 -646923 
2339.137 -755924 -861623 -953213 -1025281 -1074895 -1099915 -1098130 
2342.513 -1072879 -1036784 -1008488 -1003794 -1027661 -1072218 -1122454 
2345.888 -1165878 -1199285 -1225322 -1249111 -1274352 -1302895 -1335169 
2349.263 -1370347 -1404828 -1431414 -1440661 -1426659 -1394524 -1361032 
2352.638 -1345706 -1357729 -1391584 -1431150 -1458923 -1465759 -1457833 
2356.014 -1452219 -1464999 -1501025 -1552566 -1606147 -1648499 -1672694 
2359.389 -1677678 -1668238 -1645034 -1608722 -1568644 -1539954 -1537379 
2362.764 -1572738 -1650084 -1762001 -1888009 -2000656 -2075683 -2101206 
2366.139 -2082443 -2040332 -2000360 -1979647 -1978756 -1983143 -1973545 
2369.515 -1937888 -1877848 -1809221 -1752860 -1724577 -1727185 -1750451 
2372.890 -1776850 -1790413 -1783252 -1758074 -1723752 -1690154 -1662330 
2376.265 -1638795 -1613740 -1582180 -1542331 -1499638 -1462325 -1439835 
2379.640 -1437359 -1454168 -1484185 -1518030 -1545633 -1559763 -1556264 
2383.016 -1535166 -1499771 -1456116 -1412160 -1376754 -1357960 -1361627 
2386.391 -1388942 -1435179 -1490426 -1542067 -1577822 -1590103 -1577459 
2389.766 -1546359 -1507365 -1472726 -1452418 -1450700 -1465759 -1490393 
2393.141 -1513705 -1524601 -1513507 -1475566 -1411962 -1330247 -1244056 
2396.517 -1169546 -1122521 -1113531 -1144200 -1206951 -1286707 -1365921 
2399.892 -1430688 -1472594 -1501686 -1523445 -1543222 -1564022 -1586505 
2403.267 -1609350 -1631170 -1651701 -1672331 -1696095 -1725435 -1761737 
2406.642 -1802820 -1843668 -1876000 -1891539 -1883786 -1851388 -1798827 
2410.018 -1736689 -1678866 -1638960 -1625591 -1640148 -1675730 -1720188 
2413.393 -1759427 -1783516 -1789060 -1781239 -1770911 -1770086 -1786849 
2416.768 -1822122 -1868247 -1911497 -1936601 -1931818 -1892793 -1824894 
2420.143 -1741210 -1660712 -1602318 -1582213 -1608887 -1681870 -1791337 
2423.519 -1920107 -2046235 -2147664 -2206908 -2214589 -2172128 -2091940 
2426.894 -1993103 -1897213 -1822386 -1779028 -1767050 -1777939 -1798233 
2430.269 -1814368 -1817998 -1807307 -1787047 -1765103 -1748438 -1740814 
2433.644 -1740616 -1743553 -1744477 -1741474 -1736062 -1733785 -1739824 
2437.020 -1756952 -1782427 -1807835 -1822023 -1815556 -1784209 -1732102 
2440.395 -1669525 -1611297 -1569767 -1552797 -1559730 -1584326 -1616942 
2443.770 -1649853 -1678470 -1703158 -1726689 -1750715 -1773749 -1790710 
2447.145 -1794339 -1779424 -1745863 -1699957 -1652989 -1617305 -1601097 
2450.521 -1605124 -1622653 -1641931 -1651140 -1643647 -1620837 -1590533 
2453.896 -1562570 -1543883 -1533516 -1521959 -1494256 -1436665 -1343427 
2457.271 -1221589 -1090231 -976554 -906726 -897898 -952386 -1057509 -1189604 
2461.128 -1322451 -1436170 -1521596 -1581652 -1626680 -1667578 -1710056 
2464.504 -1750814 -1779688 -1784473 -1757777 -1701937 -1629816 -1561414 
2467.879 -1517205 -1510568 -1543024 -1603771 -1674179 -1733884 -1768667 
2471.254 -1773617 -1754048 -1721937 -1690385 -1668469 -1658666 -1657610 
2474.629 -1659326 -1658897 -1655761 -1654078 -1660679 -1681342 -1717515 
2478.005 -1763651 -1809386 -1841721 -1850267 -1830932 -1788235 -1733422 
2481.380 -1681771 -1646420 -1634768 -1645760 -1671077 -1698735 -1717515 
2484.755 -1721145 -1710221 -1690319 -1669063 -1651338 -1637210 -1620903 
2488.130 -1595682 -1555537 -1501521 -1441223 -1387819 -1353898 -1347919 
2491.506 -1368926 -1406810 -1446110 -1471340 -1472066 -1446473 -1400204 
2494.881 -1343328 -1285056 -1230774 -1180285 -1130981 -1080183 -1029644 
2498.256 -985744 -957974 -954701 -979463 -1027760 -1088446 -1146976 -1190099 
2502.114 -1210024 -1207513 -1189439 -1166605 -1147934 -1137425 -1132435 
2505.489 -1125197 -1106921 -1072317 -1023264 -969578 -927127 -912182 -935657 
2509.346 -998505 -1090099 -1191355 -1280695 -1342964 -1373088 -1380123 
2512.721 -1381048 -1395283 -1434816 -1500398 -1579275 -1652295 -1700683 
2516.097 -1715138 -1697844 -1662561 -1626878 -1604695 -1600535 -1608986 
2519.472 -1618263 -1617701 -1602318 -1575346 -1545501 -1521398 -1506474 
2522.847 -1498285 -1489865 -1475732 -1455720 -1437194 -1430523 -1443831 
2526.222 -1476524 -1517667 -1548835 -1551774 -1515818 -1443501 -1348282 
2529.598 -1250300 -1167332 -1109664 -1078101 -1067987 -1073870 -1094957 
2532.973 -1133658 -1193139 -1270949 -1356474 -1431414 -1477184 -1482600 
2536.348 -1450337 -1396770 -1346664 -1322583 -1335796 -1382138 -1445251 
2539.723 -1503997 -1543322 -1558806 -1558113 -1553854 -1556891 -1569305 
2543.099 -1584227 -1589179 -1574587 -1538105 -1487487 -1436566 -1399577 
2546.474 -1384549 -1391320 -1412325 -1437854 -1460013 -1475996 -1486728 
2549.849 -1495709 -1504525 -1513870 -1523511 -1535695 -1554877 -1588783 
2553.224 -1643020 -1718439 -1808099 -1898731 -1974600 -2023974 -2042508 
2556.600 -2034626 -2009891 -1978360 -1945309 -1910211 -1868247 -1815424 
2559.975 -1751804 -1683718 -1620903 -1572045 -1539954 -1519945 -1500860 
2563.350 -1470580 -1420714 -1351354 -1270288 -1191190 -1127775 -1090793 
2566.725 -1085273 -1110854 -1162474 -1233054 -1313499 -1393533 -1463084 
2570.101 -1512483 -1535992 -1532987 -1509742 -1477085 -1447101 -1429598 
2573.476 -1427914 -1439142 -1455522 -1469424 -1475533 -1473156 -1464999 
2576.851 -1454003 -1440430 -1420978 -1389801 -1342535 -1278581 -1203746 
2580.226 -1128568 -1065806 -1025380 -1012323 -1024851 -1055757 -1094098 
2583.602 -1128965 -1150247 -1150644 -1126916 -1080018 -1016025 -946072 
2586.977 -883944 -843270 -832588 -852364 -893335 -938996 -970669 -974240 
2590.834 -944419 -887713 -818665 -755362 -712426 -696614 -704553 -725691 
2594.692 -745339 -750731 -733365 -691883 -630348 -556692 -481005 -412687 
2598.549 -358991 -324857 -311513 -317241 -337637 -366639 -397029 -421591 
2602.406 -432846 -423743 -388223 -322109 -224623 -100682 39431 180452 305404 
2606.746 399415 454041 468701 450525 410957 362903 316479 279045 254577 
2611.086 245924 254908 282128 324868 376167 424853 458751 469497 456595 
2615.425 429430 404324 398719 424123 481240 560028 643840 717380 772544 
2619.765 811414 842819 877413 919780 966899 1008677 1034748 1040627 1031892 
2624.104 1023057 1031992 1072414 1148518 1253279 1372158 1488610 1590426 
2627.962 1671744 1732152 1773005 1795329 1798690 1784217 1757368 1729790 
2631.819 1717581 1736110 1794165 1889231 2008351 2132831 2245357 2337957 
2635.677 2413284 2483125 2560777 2654945 2764771 2880429 2987010 3071627 
2639.534 3127223 3154824 3161232 3155358 3144711 3133998 3126255 3123485 
2643.392 3128491 3143410 3168241 3199115 3228023 3246149 3246750 3228657 
2647.249 3197146 3161165 3129192 3105898 3089646 3075531 3059180 3041028 
2651.106 3028415 3032586 3063785 3125921 3212501 3308379 3394427 3455408 
2654.964 3484834 3487138 3474279 3460719 3456978 3466731 3486704 3510587 
2658.821 3532767 3550405 3564903 3579035 3595171 3613647 3633694 3654644 
2662.679 3678302 3708477 3749216 3801992 3862830 3922574 3968783 3989749 
2666.536 3978647 3935580 3866173 3778996 3681577 3578868 3471874 3361334 
2670.394 3249487 3141374 3043898 2963457 2901810 2855414 2815793 2772975 
2674.251 2719524 2654145 2581776 2511918 2454834 2417615 2401889 2404821 
2678.108 2419514 2438807 2455567 2464364 2460699 2441039 2403322 2347351 
2681.966 2276765 2198265 2120478 2052126 1998398 1960253 1933593 1911661 
2685.823 1887800 1857817 1821182 1780657 1740036 1702778 1670081 1641543 
2689.681 1615202 1589495 1562925 1534760 1503472 1467564 1425111 1374717 
2693.538 1317018 1255273 1195430 1144099 1106926 1086829 1082711 1090118 
2697.396 1102840 1114301 1120214 1118985 1112108 1103139 1096097 1094536 
2701.253 1099120 1108255 1117490 1121443 1115696 1099386 1075635 1052219 
2705.110 1038568 1042786 1068394 1112673 1167222 1221579 1267169 1301232 
2708.968 1328052 1356669 1396589 1453036 1523621 1598574 1664293 1708899 
2712.825 1726396 1719577 1698487 1676334 1664726 1670447 1693897 1730721 
2716.683 1774369 1819618 1863041 1903175 1939351 1970205 1994171 2009782 
2720.540 2017272 2019170 2020002 2025228 2039077 2063112 2096139 2135229 
2724.397 2176686 2217481 2255215 2288490 2315538 2334892 2345552 2348284 
2728.255 2345985 2344086 2348750 2365341 2395725 2437874 2486025 2532714 
2732.112 2571043 2596408 2607642 2607042 2598142 2585576 2573376 2564610 
2735.970 2560777 2562044 2566543 2571176 2572010 2566110 2552845 2534714 
2739.827 2517650 2508552 2513285 2533781 2567543 2608442 2649144 2684682 
2743.685 2713222 2736795 2758069 2778377 2794884 2801687 2791515 2759903 
2747.542 2708088 2643510 2577909 2523283 2487158 2471496 2472062 2481792 
2751.399 2494122 2505553 2516184 2528082 2542346 2558144 2572110 2580909 
2755.257 2583476 2582976 2586675 2603375 2640077 2699319 2777510 2866855 
2759.114 2957619 3041729 3114541 3175184 3224952 3265712 3298029 3321166 
2762.972 3333687 3334789 3325340 3308512 3289415 3274225 3269017 3279199 
2766.829 3308178 3356693 3421911 3497894 3575527 3644553 3696313 3725588 
2770.687 3732472 3721878 3701727 3680106 3663165 3653542 3651436 3655513 
2774.544 3665103 3680541 3702629 3731871 3766161 3801557 3833078 3857114 
2778.401 3873060 3884159 3896094 3914583 3942735 3980319 4023826 4068975 
2782.259 4113093 4156512 4201508 4251026 4305436 4361726 4414107 4456419 
2786.116 4485142 4501881 4513264 4528264 4555284 4598245 4655277 4720053 
2789.974 4783667 4838814 4881837 4913972 4940414 4967996 5003624 5051825 
2793.831 5114247 5189320 5272387 5356242 5431893 5490612 5525947 5535679 
2797.688 5523565 5498732 5473498 5460782 5469438 5502322 5555244 5618309 
2801.546 5679202 5726538 5752659 5755748 5739296 5711295 5682256 5662987 
2805.403 5662517 5686251 5735502 5806988 5893734 5987082 6078467 6161671 
2809.261 6233563 6294340 6346417 6393894 6441578 6495354 6561583 6646696 
2813.118 6755148 6887392 7037121 7191347 7332486 7443367 7513315 7542578 
2816.976 7544061 7538768 7549388 7592309 7671656 7779318 7897906 8008965 
2820.833 8099528 8166542 8216007 8259130 8306174 8362378 8426527 8493965 
2824.690 8560026 8623866 8689204 8763004 8851390 8957383 9078391 9208401 
2828.548 9339126 9462407 9571834 9662623 9731505 9776846 9799280 9803482 
2832.405 9798975 9798263 9814700 9857473 9928420 10021215 10124645 10226743 
2836.263 10320620 10406915 10492412 10586211 10693884 10814833 10941150 
2839.638 11063357 11174957 11277472 11381882 11505337 11665379 11874240 
2843.013 12135024 12442607 12787533 13160602 13556861 13976304 14421876 
2846.388 14896914 15401549 15932137 16481785 17042158 17604912 18162314 
2849.764 18706388 19229326 19723906 20185654 20614854 21017906 21407756 
2853.139 21800712 22213132 22657778 23142160 23668998 24238520 24850712 
2856.514 25506460 26207506 26954108 27745012 28575684 29439890 30331794 
2859.889 31246790 32181702 33133254 34096576 35064264 36027924 36980556 
2863.265 37920236 38850724 39780384 40717816 41666616 42622024 43571004 
2866.640 44496404 45383312 46224308 47021700 47785788 48529180 49261376 
2870.015 49984992 50697340 51392472 52067428 52723796 53368376 54010016 
2873.390 54657412 55318192 56002068 56724972 57513644 58405012 59442192 
2876.766 60666264 62109040 63788584 65710308 67870376 70258624 72854592 
2880.141 75617384 78469584 81286016 83894720 86101824 87735576 88701992 
2883.516 89023144 88843208 88392120 87921752 87640376 87665592 88007120 
2886.891 88579592 89237536 89821376 90198856 90291848 90077952 89577696 
2890.267 88832024 87887352 86789080 85584288 84323808 83062488 81851808 
2893.642 80731488 79723112 78829848 78041912 77346376 76734176 76203400 
2897.017 75756256 75394864 75114232 74901032 74735184 74594512 74458608 
2900.392 74311688 74141432 73938136 73693112 73401072 73062168 72684952 
2903.768 72284968 71880240 71483216 71095232 70704624 70290880 69833432 
2907.143 69321040 68756424 68154888 67537624 66922544 66318648 65726376 
2910.518 65142192 64566636 64008848 63486016 63016528 62612072 62269440 
2913.893 61970984 61688160 61392280 61063076 60694536 60293944 59876224 
2917.269 59456436 59045068 58647244 58265928 57905884 57577232 57293892 
2920.644 57071456 56922712 56855444 56872664 56975108 57163248 57439056 
2924.019 57804352 58258200 58794456 59401500 60064488 60770060 61509232 
2927.394 62277812 63071624 63878940 64673408 65411828 66038884 66500032 
2930.770 66755904 66796124 66642508 66345052 65969148 65584004 65252572 
2934.145 65027952 64951220 65050772 65337992 65803556 66412380 67104956 
2937.520 67805688 68439744 68953664 69332824 69607904 69846776 70135664 
2940.895 70558192 71177936 72032232 73134392 74483064 76070768 77887752 
2944.271 79917472 82127664 84461672 86838728 89165880 91361648 93378816 
2947.646 95220320 96935112 98599568 100292048 102071320 103965000 105973440 
2951.021 108080664 110267728 112519744 114825656 117172048 119538384 
2953.914 121896144 124217232 126481328 128682000 130824296 132918272 
2956.807 134970560 136985712 138971344 140949264 142958864 145050752 
2959.700 147269680 149636496 152138400 154740432 157409904 160148640 
2962.593 163004992 166059184 169377728 172960432 176706720 180433568 
2965.486 183954512 187199200 190308016 193642064 197688560 202901248 
2968.379 209513984 217362560 225756960 233514944 239276128 242064224 
2971.272 241762528 239132960 235386000 231674576 228801056 227177808 
2974.166 226925056 228005600 230333440 233837360 238472944 244205712 
2977.059 250985504 258736432 267352528 276670464 286361440 295716768 
2979.952 303392992 307382400 305580576 296973216 282557024 264966672 
2982.845 247100336 231012944 217658656 207168832 199212544 193258304 
2985.738 188732448 185124288 182058144 179326352 176865072 174685424 
2988.631 172793680 171137408 169596576 168018240 166272192 164300880 
2991.524 162133696 159862912 157594768 155405136 153313904 151288192 
2994.417 149262768 147168816 144953360 142586144 140052608 137343088 
2997.310 134447328 131355200 128063008 124579848 120927512 117135208 
3000.203 113230872 109236280 105165584 101027776 96832112 92591776 88324424 
3003.578 84052072 79798720 75589224 71447248 67394080 63445292 59610612 
3006.954 55893148 52292512 48808304 45444784 42211388 39122464 36192652 
3010.329 33432998 30848260 28437410 26194978 24114510 22188546 20408242 
3013.704 18761360 17231764 15801508 14455719 13186286 11995723 10894057 
3017.079 9893979 9002711 8217392 7522957 6897727 6319554 5774014 5256624 
3020.937 4771875 4327087 3926352 3567142 3241042 2937603 2651178 2382099 
3024.794 2137360 1925073 1749284 1605225 1480231 1357832 1224170 1073045 
3028.652 907926 739120 578906 436097 312798 204485 103059 1689 -102637 
3032.991 -208031 -308302 -396698 -467468 -518072 -549147 -563840 -567480 
3036.849 -566586 -568439 -580087 -606227 -648545 -704355 -767401 -829149 
3040.706 -881960 -921142 -946336 -960288 -967628 -971661 -974240 -974636 
3044.563 -972322 -966900 -960387 -956222 -957346 -965611 -980124 -998207 
3048.421 -1017215 -1035495 -1054105 -1074862 -1099022 -1125991 -1152528 
3051.796 -1173941 -1186233 -1188051 -1181806 -1172124 -1164027 -1159963 
3055.171 -1159599 -1160062 -1159038 -1156790 -1157683 -1167795 -1193139 
3058.547 -1234706 -1288260 -1344285 -1392047 -1424017 -1438680 -1441586 
3061.922 -1442081 -1449214 -1467641 -1494553 -1522323 -1540548 -1541473 
3065.297 -1522587 -1487586 -1444162 -1401592 -1366746 -1343724 -1333055 
3068.672 -1332691 -1340256 -1352675 -1366647 -1379397 -1387191 -1388314 
3072.048 -1382336 -1372163 -1362717 -1359579 -1365921 -1381246 -1400138 
3075.423 -1414373 -1415892 -1400072 -1368101 -1327307 -1288855 -1264176 
3078.798 -1261864 -1284990 -1330313 -1389768 -1452418 -1506705 -1543619 
3082.173 -1557353 -1546557 -1514629 -1468962 -1418831 -1373617 -1340256 
3085.549 -1320700 -1313235 -1311847 -1310229 -1303820 -1292324 -1278481 
3088.924 -1267744 -1264870 -1272337 -1289582 -1314060 -1342964 -1374905 
3092.299 -1410047 -1449875 -1493728 -1538402 -1577624 -1603671 -1610571 
3095.674 -1597696 -1569272 -1534440 -1502709 -1480685 -1469490 -1465297 
3099.050 -1461664 -1453276 -1438482 -1420417 -1404795 -1397760 -1401493 
3102.425 -1413283 -1427385 -1436533 -1435278 -1422530 -1400799 -1375532 
3105.800 -1351618 -1333154 -1321394 -1315811 -1314358 -1315382 -1317001 
3109.175 -1317628 -1315811 -1311120 -1304514 -1299823 -1302432 -1318388 
3112.551 -1351354 -1400502 -1459220 -1516478 -1560754 -1583699 -1583765 
3115.926 -1567192 -1545236 -1529487 -1527374 -1539128 -1558641 -1576337 
3119.301 -1583666 -1576634 -1556891 -1530379 -1503535 -1481411 -1465164 
3122.676 -1453606 -1444624 -1438052 -1435113 -1437755 -1445615 -1454267 
3126.052 -1454729 -1436104 -1389570 -1312871 -1212403 -1103319 -1004753 
3129.427 -935326 -907487 -925011 -982306 -1067194 -1164127 -1258196 -1337547 
3133.284 -1394722 -1426659 -1433627 -1418468 -1386168 -1342072 -1292489 
3136.659 -1242239 -1195783 -1155601 -1123281 -1099551 -1085240 -1080778 
3140.035 -1086166 -1099915 -1118786 -1138317 -1154378 -1164490 -1169777 
3143.410 -1174965 -1186696 -1210487 -1248813 -1298733 -1352774 -1401030 
3146.785 -1435245 -1451130 -1449776 -1436929 -1419789 -1404333 -1393004 
3150.160 -1384351 -1374079 -1357960 -1332724 -1297675 -1253439 -1201268 
3153.536 -1141920 -1076415 -1006736 -937608 -877066 -835002 -820187 -836358 
3157.393 -879645 -938038 -994339 -1031165 -1037247 -1010538 -959561 -899220 
3161.250 -845386 -808281 -789131 -779871 -767203 -738724 -688741 -620653 
3165.108 -546169 -480376 -435858 -417089 -419340 -429966 -433905 -419572 
3168.965 -382728 -327340 -263435 -201871 -149541 -106413 -66660 -21271 36349 
3173.305 106771 182938 251527 298341 312566 291677 242608 179557 120326 
3177.645 79992 67134 81318 114957 156420 194871 223646 242343 255704 271386 
3182.466 296153 333290 381142 433775 482732 520018 540122 541648 526885 
3186.806 500711 469066 437258 409033 387111 373017 367877 372453 386945 
3191.146 410559 441437 475932 509900 538695 558734 567658 565037 552530 
3195.485 533288 512156 494641 486448 492153 513815 550406 596756 644338 
3199.825 683131 703806 699757 669591 616332 547122 471255 397492 332594 
3204.164 280901 244266 222618 214695 218772 231635 249504 268137 284051 
3208.504 295324 302619 308786 317208 329742 345360 358923 363367 351230 
3212.844 318733 267109 203523 138654 83605 46423 30418 33897 51427 76612 
3217.665 103257 126689 143626 151382 148167 133683 109488 80224 52553 33532 
3222.487 28562 38569 59844 84102 101600 103224 83671 41253 -21834 -101577 
3227.309 -192433 -288832 -383622 -468858 -535050 -573932 -580220 -554839 
3231.166 -504801 -443206 -384913 -342901 -324790 -331379 -357634 -396400 
3235.024 -440525 -486135 -532402 -580451 -631506 -684969 -737897 -786022 
3238.881 -824883 -851372 -864666 -866319 -859805 -850545 -845188 -850545 
3242.739 -872205 -912248 -967793 -1030371 -1087025 -1124702 -1134385 
3246.114 -1115712 -1077176 -1034933 -1006108 -1004191 -1034008 -1091057 
3249.489 -1164556 -1242767 -1317859 -1388380 -1457668 -1530412 -1606940 
3252.864 -1681804 -1744477 -1783846 -1793713 -1776421 -1742464 -1706920 
3256.240 -1683157 -1677678 -1688570 -1707251 -1723686 -1731838 -1732498 
3259.615 -1733521 -1744775 -1774112 -1822617 -1883621 -1944650 -1992872 
3262.990 -2019027 -2020808 -2003394 -1977173 -1953754 -1943099 -1950224 
3266.365 -1974732 -2011243 -2051511 -2086367 -2108427 -2113406 -2102162 
3269.740 -2079871 -2055040 -2037001 -2033241 -2047356 -2078519 -2122177 
3273.116 -2172589 -2224776 -2275967 -2325109 -2371773 -2414249 -2449240 
3276.491 -2472567 -2481067 -2474214 -2455434 -2430097 -2403276 -2377540 
3279.866 -2351638 -2321714 -2285196 -2243104 -2202227 -2173216 -2167050 
3283.241 -2189898 -2239939 -2307246 -2377112 -2435666 -2474774 -2493915 
3286.617 -2498989 -2497638 -2495068 -2490851 -2480869 -2459388 -2424265 
3289.992 -2378496 -2329755 -2286547 -2254509 -2233346 -2217260 -2198568 
3293.367 -2172655 -2141070 -2112022 -2096293 -2102789 -2132827 -2179150 
3296.742 -2228039 -2264068 -2276758 -2263606 -2230412 -2188678 -2150434 
3300.118 -2124551 -2114165 -2117990 -2131278 -2148785 -2164974 -2175062 
3303.493 -2174303 -2158643 -2125936 -2078223 -2022160 -1969224 -1932478 
3306.868 -1923142 -1946497 -2000261 -2074760 -2156237 -2230808 -2287832 
3310.243 -2321055 -2328207 -2309651 -2267595 -2205689 -2130321 -2051577 
3313.619 -1982120 -1933731 -1914763 -1925319 -1957316 -1995412 -2022523 
3316.994 -2025194 -1998084 -1944584 -1874912 -1801038 -1733125 -1675896 
3320.369 -1630179 -1594395 -1567819 -1552038 -1549496 -1561876 -1586967 
3323.744 -1617767 -1644736 -1658435 -1653451 -1630443 -1595220 -1555603 
3327.120 -1517568 -1482699 -1448125 -1409056 -1362453 -1309964 -1258560 
3330.495 -1217789 -1196411 -1197798 -1219011 -1251754 -1286014 -1313829 
3333.870 -1331865 -1341511 -1346829 -1351255 -1355351 -1356276 -1349934 
3337.245 -1333154 -1306066 -1272766 -1239827 -1213328 -1196873 -1190562 
3340.621 -1191586 -1196774 -1204308 -1214518 -1229353 -1249375 -1272667 
3343.996 -1293149 -1302531 -1292951 -1260939 -1209099 -1147207 -1088645 
3347.371 -1046436 -1028983 -1037611 -1066070 -1104079 -1140895 -1169249 
3350.746 -1187985 -1201400 -1217525 -1244254 -1286344 -1343625 -1411269 
3354.122 -1481246 -1544774 -1595319 -1629453 -1647476 -1652295 -1648301 
3357.497 -1639323 -1628529 -1617536 -1607072 -1597894 -1590830 -1587627 
3360.872 -1589740 -1598092 -1612188 -1629453 -1646024 -1657147 -1659392 
3364.247 -1650876 -1632556 -1607534 -1580530 -1555438 -1535166 -1520738 
3367.623 -1511790 -1507926 -1509643 -1518492 -1536982 -1565970 -1604563 
3370.998 -1647971 -1688570 -1717185 -1725798 -1710386 -1672265 -1618329 
3374.373 -1559565 -1508224 -1475566 -1468764 -1489964 -1535629 -1597366 
3377.748 -1663188 -1719924 -1756160 -1765103 -1745699 -1704610 -1653847 
3381.124 -1607996 -1579473 -1574587 -1591721 -1621200 -1649160 -1662726 
3384.499 -1653550 -1621465 -1572573 -1517172 -1464801 -1421407 -1388579 
3387.874 -1365623 -1351618 -1348381 -1359414 -1388876 -1437359 -1499407 
3391.249 -1563527 -1614664 -1638894 -1629915 -1590103 -1531303 -1469193 
3394.625 -1418105 -1385936 -1372626 -1371172 -1372229 -1367539 -1353534 
3398.000 -1331700 -1307024 -1285056 -1269958 -1263780 -1266885 -1279373 
3401.375 -1301342 -1332889 -1372890 -1418402 -1464108 -1503403 -1530379 
3404.750 -1541142 -1534902 -1513341 -1479397 -1436566 -1388380 -1338472 
3408.125 -1291795 -1253703 -1229651 -1222018 -1229254 -1242503 -1252018 
3411.501 -1249177 -1229386 -1193371 -1147405 -1100972 -1063128 -1039429 
3414.876 -1030272 -1031727 -1037578 -1042106 -1042569 -1039627 -1035958 
3418.251 -1034768 -1037445 -1043131 -1049246 -1052320 -1050370 -1042734 
3421.626 -1029809 -1012257 -990868 -966140 -940253 -917869 -905205 -909140 
3425.484 -933574 -976256 -1028223 -1074598 -1099551 -1091685 -1049543 
3428.859 -982306 -907917 -847040 -816350 -823163 -863211 -922829 -983893 
3432.717 -1030272 -1052088 -1046899 -1019893 -979860 -937046 -899948 -873958 
3436.574 -861888 -862913 -874487 -892872 -913273 -932119 -947493 -959296 
3440.431 -969115 -978008 -984984 -986934 -979661 -960553 -931094 -899055 
3444.289 -875876 -872866 -895881 -940716 -991629 -1025182 -1019397 -963528 
3448.146 -862681 -737136 -614201 -520455 -472168 -472002 -509402 -565461 
3452.004 -621481 -664954 -692148 -706273 -712922 -715933 -714808 -706306 
3455.861 -687649 -660157 -629918 -606856 -600404 -615955 -651787 -700319 
3459.719 -750731 -792472 -819360 -830042 -828091 -819757 -812481 -812845 
3463.576 -825908 -853852 -895715 -945973 -995001 -1030735 -1041842 -1022074 
3467.433 -973314 -906396 -837483 -783377 -755461 -756817 -781789 -820583 
3471.291 -864136 -908842 -957445 -1016422 -1090033 -1175692 -1262392 
3474.666 -1333517 -1373617 -1375730 -1345343 -1299591 -1262029 -1253902 
3478.041 -1286807 -1359282 -1457371 -1560490 -1647146 -1701343 -1715733 
3481.417 -1692068 -1638597 -1567060 -1489766 -1417279 -1357564 -1316208 
3484.792 -1295991 -1296915 -1315745 -1346763 -1383459 -1420252 -1454003 
3488.167 -1484515 -1513507 -1542430 -1571319 -1597828 -1619187 -1634008 
3491.542 -1643812 -1653913 -1671902 -1704412 -1754279 -1818163 -1887382 
3494.917 -1949861 -1994060 -2012892 -2005867 -1979679 -1945771 -1916875 
3498.293 -1903679 -1912289 -1943528 -1994159 -2057084 -2124024 -2185381 
3501.668 -2232193 -2256190 -2251575 -2214523 -2145554 -2049730 -1937228 
3505.043 -1821496 -1717911 -1641072 -1602681 -1609085 -1659425 -1744048 
3508.418 -1845779 -1942802 -2016125 -2053754 -2053787 -2023347 -1974369 
3511.794 -1919184 -1867489 -1823871 -1790215 -1765664 -1749890 -1742728 
3515.169 -1744709 -1754840 -1769954 -1784176 -1791535 -1788235 -1775828 
3518.544 -1761077 -1755203 -1769327 -1810574 -1878607 -1965200 -2056524 
3521.919 -2136685 -2193095 -2219105 -2216798 -2194941 -2164611 -2135399 
3525.295 -2111857 -2093061 -2074200 -2050093 -2016421 -1972786 -1921559 
3528.670 -1866862 -1811762 -1757414 -1702861 -1646321 -1588057 -1530577 
3532.045 -1479100 -1439571 -1416222 -1409947 -1417180 -1431150 -1442510 
3535.420 -1443072 -1428310 -1399214 -1361594 -1323046 -1289912 -1264606 
3538.796 -1246237 -1232129 -1220300 -1212139 -1212568 -1229915 -1272039 
3542.171 -1344186 -1446077 -1571187 -1707185 -1839478 -1953457 -2037001 
3545.546 -2080498 -2078058 -2028129 -1936073 -1814731 -1683916 -1565772 
3548.921 -1480982 -1444624 -1463051 -1531700 -1634371 -1746062 -1840006 
3552.297 -1897114 -1912322 -1892694 -1852180 -1803876 -1755236 -1706756 
3555.672 -1654903 -1596541 -1532426 -1468731 -1415529 -1382964 -1376820 
3559.047 -1395548 -1430523 -1468863 -1499110 -1514497 -1516544 -1514134 
3562.422 -1521431 -1553887 -1624832 -1742200 -1906978 -2109944 -2328668 
3565.798 -2524849 -2650339 -2662722 -2549159 -2335655 -2076244 -1825554 
3569.173 -1618824 -1467839 -1368464 -1310856 -1287401 -1293909 -1328463 
3572.548 -1387555 -1463183 -1542034 -1608062 -1647971 -1656586 -1638795 
3575.923 -1607798 -1578087 -1558212 -1546656 -1532162 -1499870 -1440430 
3579.299 -1356771 -1265168 -1189736 -1153288 -1166803 -1226049 -1314060 
3582.674 -1409947 -1498648 -1577459 -1655200 -1746425 -1860560 -1991092 
3586.049 -2109285 -2169259 -2126958 -1967476 -1721673 -1455621 -1237184 
3589.424 -1106855 -1066599 -1091586 -1148231 -1209760 -1263119 -1308841 
3592.800 -1354822 -1408329 -1470019 -1532294 -1582576 -1609284 -1606775 
3596.175 -1576634 -1526549 -1466386 -1403870 -1342865 -1284329 -1227239 
3599.550 -1168522 -1104806 -1031528 -945675 -847569 -743520 -645104 -568241 
3603.407 -528828 -537929 -594713 -684208 -778713 -846312 -859904 -805767 
3607.265 -687550 -524493 -347139 -190777 -84682 -43337 -65004 -136358 
3611.122 -239592 -354091 -451845 -497553 -458564 -322870 -108069 146974 
3614.980 398918 612218 767366 863270 919149 970552 1058795 1213039 1436646 
3619.319 1703743 1973866 2214450 2417282 2597642 2780478 2981672 3196879 
3623.177 3403209 3573522 3695044 3782137 3872659 4010148 4217768 4481392 
3627.034 4749364 4963035 5110895 5260179 5497927 5829555 6174375 6459334 
3630.892 6677113 6879650 7155236 7618577 8397374 9596393 11237212 13210571 
3634.749 15281135 17151376 18549644 19308888 19415454 19017416 18377644 
3638.124 17784374 17452288 17464224 17773260 18255192 18776514 19253502 
3641.500 19676094 20091948 20559716 21103154 21691780 22255992 22720268 
3644.875 23037854 23210174 23288440 23354798 23484782 23705250 23972958 
3648.250 24198020 24307406 24303270 24273592 24336456 24559846 24921414 
3651.625 25342956 25755134 26135786 26501838 26879902 27276394 27665020 
3655.000 27993206 28206818 28279554 28231746 28124336 28033956 28021126 
3658.376 28105070 28255826 28404972 28472822 28402070 28179452 27837418 
3661.751 27432048 27015456 26615256 26232040 25851162 25461414 25066786 
3665.126 24687736 24351174 24077874 23873074 23726422 23616588 23521926 
3668.501 23429768 23341442 23262292 23177984 23035164 22766952 22347062 
3671.877 21815588 21247320 20698596 20168056 19595110 18904822 18086692 
3675.252 17220974 16388597 15583537 14765430 13934868 13127885 12375918 
3678.627 11688592 11056219 10462678 9891369 9329173 8768042 8204730 7637023 
3682.485 7064095 6489636 5926785 5396632 4922585 4520831 4192977 3919331 
3686.342 3658921 3359698 2982873 2525582 2024396 1529473 1081482 708951 
3690.199 435035 274867 225303 256798 320093 364627 359321 300298 206606 
3694.539 105942 23790 -25512 -40852 -33132 -18753 -11033 -14976 -29885 
3698.879 -55794 -98032 -164379 -257706 -367731 -471440 -541768 -561193 
3702.736 -528828 -459855 -378590 -310222 -273799 -279627 -328068 -413580 
3706.594 -527968 -664458 -818566 -985447 -1157121 -1319214 -1453507 -1541935 
3710.451 -1574059 -1553259 -1498087 -1437557 -1398289 -1391320 -1405555 
3713.826 -1415463 -1395647 -1336094 -1247888 -1159500 -1103616 -1101766 
3717.201 -1152263 -1231567 -1306892 -1353468 -1366185 -1357564 -1347291 
3720.577 -1346532 -1348183 -1327835 -1258097 -1127213 -950072 -763598 
3723.952 -610529 -521448 -501988 -533329 -579260 -606558 -602985 -580550 
3727.809 -561424 -557023 -560001 -552423 -522474 -479085 -454096 -493582 
3731.667 -638553 -907123 -1282149 -1713521 -2131640 -2465352 -2653896 
3735.042 -2657782 -2476520 -2171172 -1850662 -1613212 -1493365 -1466551 
3738.417 -1489204 -1533119 -1590301 -1658765 -1722201 -1741936 -1668304 
3741.792 -1467542 -1152164 -795581 -509071 -372432 -380708 -499374 -725195 
3745.650 -1030338 -1319511 -1487850 -1486430 -1344814 -1150974 -1006406 
3749.025 -973942 -1053642 -1195056 -1334277 -1421870 -1440529 -1411169 
3752.400 -1387654 -1427914 -1557749 -1753091 -1957844 -2117528 -2204172 
3755.776 -2221380 -2195073 -2154786 -2121188 -2098107 -2074760 -2033868 
3759.151 -1961406 -1855677 -1732861 -1622455 -1554415 -1539855 -1565871 
3762.526 -1607534 -1646651 -1679427 -1709198 -1733026 -1738801 -1716261 
3765.901 -1668304 -1606610 -1545435 -1498780 -1481477 -1501058 -1546920 
3769.277 -1587627 -1587462 -1529950 -1425007 -1298303 -1176023 -1074994 
3772.652 -1002273 -956155 -930631 -918861 -918861 -934301 -973942 -1045973 
3776.509 -1153849 -1292225 -1446176 -1591490 -1697283 -1732762 -1682002 
3779.885 -1557254 -1396307 -1242107 -1123248 -1049642 -1020223 -1029148 
3783.260 -1065872 -1112077 -1144035 -1140730 -1094230 -1010703 -907388 
3786.635 -805403 -724467 -676500 -661646 -667766 -676401 -670843 -643317 
3790.492 -598286 -550074 -516054 -508938 -531078 -575322 -630348 -689204 
3794.350 -753708 -831695 -926763 -1031561 -1129395 -1205134 -1248549 
3797.725 -1251787 -1208108 -1119480 -1004984 -900014 -837549 -821245 -819558 
3801.583 -800906 -774116 -771503 -799649 -825842 -805403 -714709 -567149 
3805.440 -404808 -272442 -191041 -155702 -157722 -193426 -251646 -308401 
3809.297 -341345 -344622 -331876 -325122 -339557 -373227 -407291 -416394 
3813.155 -384118 -315189 -235949 -178489 -155602 -155867 -172892 -227670 
3817.012 -346013 -522838 -725923 -924184 -1108838 -1288260 -1460013 -1582840 
3820.870 -1592117 -1468731 -1278283 -1114457 -1024355 -995992 -995100 
3824.245 -998835 -1005645 -1024488 -1057741 -1091289 -1102261 -1074498 
3827.620 -1007001 -912876 -814796 -738459 -705943 -724930 -782748 -851835 
3831.478 -905833 -936384 -956453 -988025 -1045048 -1119480 -1180979 -1189240 
3835.335 -1114258 -955329 -753145 -579723 -512512 -595010 -812878 -1097998 
3839.192 -1362419 -1536751 -1594890 -1554250 -1463711 -1377943 -1334244 
3842.568 -1335532 -1353435 -1345838 -1283404 -1166242 -1025413 -904875 
3845.943 -839401 -840161 -892971 -968289 -1035925 -1074862 -1077737 -1045973 
3849.800 -982604 -886556 -754865 -586837 -383986 -132582 203556 630799 
3853.658 1030763 1196127 1015718 560592 894 -502452 -852761 -1023926 
3857.515 -1045114 -975364 -876868 -795845 -757214 -768857 -828851 -930698 
3861.373 -1064682 -1218714 -1377910 -1521761 -1624568 -1656685 -1594791 
3864.748 -1438316 -1224298 -1012819 -851967 -752153 -697077 -671802 -678254 
3868.605 -721821 -785129 -832820 -860168 -911058 -1027694 -1203647 -1395713 
3872.463 -1556264 -1649688 -1652790 -1557617 -1382964 -1175593 -986901 
3875.838 -847106 -761150 -723739 -732108 -790190 -901304 -1057509 -1233120 
3879.695 -1388116 -1482270 -1497558 -1446176 -1359315 -1262690 -1165746 
3883.071 -1065905 -962768 -861987 -768956 -678187 -582470 -495005 -450587 
3886.928 -470314 -539650 -621084 -683216 -718215 -740642 -771403 -820683 
3890.785 -880207 -930797 -955164 -944286 -897732 -822899 -735151 -655625 
3894.643 -607021 -607021 -662804 -768691 -908181 -1058170 -1195221 -1302399 
3898.500 -1373055 -1413911 -1440496 -1471241 -1517931 -1580926 -1649424 
3901.875 -1708109 -1742365 -1743487 -1709594 -1646024 -1563791 -1476194 
3905.251 -1390659 -1305438 -1212502 -1106161 -989215 -875413 -783476 -728999 
3909.108 -716561 -737235 -772528 -801931 -811423 -798921 -775009 -758206 
3912.966 -766674 -811423 -892806 -1002141 -1123842 -1238109 -1324631 
3916.341 -1368134 -1365293 -1326250 -1268075 -1207083 -1152825 -1109235 
3919.716 -1078531 -1065144 -1076052 -1119943 -1201301 -1317859 -1457767 
3923.091 -1600007 -1715006 -1773353 -1756259 -1668667 -1538072 -1404432 
3926.467 -1302631 -1253703 -1261104 -1313961 -1392047 -1473321 -1540317 
3929.842 -1585349 -1609746 -1620342 -1621993 -1615291 -1596244 -1562008 
3933.217 -1515092 -1464075 -1420417 -1393797 -1387654 -1398685 -1417312 
3936.592 -1430787 -1427649 -1403870 -1363708 -1319742 -1287170 -1279142 
3939.968 -1302432 -1356540 -1433231 -1518823 -1597168 -1653484 -1678701 
3943.343 -1671803 -1638399 -1588882 -1534869 -1488181 -1458362 -1451526 
3946.718 -1467278 -1497393 -1527638 -1543322 -1536157 -1508686 -1473453 
3950.093 -1448025 -1446638 -1475467 -1528365 -1590632 -1644736 -1677843 
3953.469 -1686721 -1678833 -1667875 -1667281 -1683718 -1714082 -1747151 
3956.844 -1769162 -1770251 -1748966 -1712432 -1672826 -1641832 -1625789 
3960.219 -1623544 -1628628 -1632985 -1630839 -1621366 -1607732 -1594428 
3963.594 -1583699 -1573762 -1560094 -1537907 -1505648 -1466353 -1427649 
3966.969 -1397727 -1383261 -1385375 -1400403 -1421242 -1440892 -1455059 
3970.345 -1464075 -1471141 -1480784 -1495610 -1515455 -1537246 -1556066 
3973.720 -1567192 -1568116 -1558113 -1538996 -1513341 -1484548 -1456744 
3977.095 -1434056 -1421606 -1423422 -1441619 -1474906 -1517832 -1561843 
3980.470 -1596871 -1615027 -1611825 -1588288 -1549958 -1504624 -1459749 
3983.846 -1420615 -1389404 -1366218 -1349835 -1339760 -1335928 -1339132 
3987.221 -1349372 -1366086 -1387026 -1409419 -1430523 -1448752 -1463612 
3990.596 -1476095 -1487289 -1498285 -1509115 -1518757 -1525360 -1526978 
3993.971 -1520837 -1504922 -1477548 -1438184 -1388414 -1332328 -1275706 
3997.347 -1225884 -1189802 -1171991 -1173412 -1191553 -1220564 -1254166 
##END=
