##TITLE=Mon Jul 21 13:14:14 2025 (GMT-07:00)
##JCAMP-DX=5.01  $$ Nicolet v. 1
##DATATYPE=INFRARED SPECTRUM
##ORIGIN=Thermo Fisher Scientific Corporation
##OWNER=Nicolet
##LONGDATE=2025/07/21
##TIME=13:38:31
##SPECTROMETER/DATA SYSTEM=Nicolet iS50
##DATA PROCESSING=
Ratio against background
%Transmittance->Absorbance
Truncated
ElementMultiply or ElementDivide
##COMMENTS=
Number of sample scans: 64
Collection length: 758.13 sec
Sample gain: 1.0
Background collected on: Mon Jul 21 12:49:25 2025 (GMT-07:00);;
Number of background scans: 64
Background gain: 1.0
Sample spacing:  1.000
Number of scan points: 16672
Resolution points: 8192
Number of FFT points: 65536
Apodization: N-B medium;
Phase correction: Mertz;
Laser frequency: 15798.00 cm-1
Number of rejected sample scans: 0
Number of rejected background scans: 0
Bench serial number: AUP2410395;;
##RESOLUTION= 4.000
##XUNITS=1/CM
##YUNITS=ABSORBANCE
##FIRSTX=600.235291
##LASTX=4000.122070
##FIRSTY=-0.036632
##MAXX=4000.122070
##MINX=600.235291
##MAXY=0.587816
##MINY=-0.039774
##XFACTOR=1.000000
##YFACTOR=1.000000E-09
##NPOINTS=7053
##DELTAX=0.482117
##ZPD=8192
##XYDATA=(X++(Y..Y))
600.235 -36632076 -36395352 -35757628 -34776276 -33599420 -32396212 
603.128 -31275846 -30252940 -29266740 -28256470 -27243690 -26378396 
606.021 -25903116 -26052148 -26929802 -28426760 -30195606 -31735182 
608.913 -32557696 -32377884 -31217570 -29380928 -27328110 -25530994 
611.806 -24349804 -23961546 -24339526 -25300614 -26586202 -27944430 
614.699 -29173372 -30129150 -30717648 -30902036 -30709036 -30232418 
617.591 -29608444 -28969342 -28405034 -27949246 -27584376 -27279414 
620.484 -27021970 -26838234 -26784094 -26908654 -27211886 -27625762 
623.377 -28017530 -28235110 -28163320 -27777900 -27153498 -26433146 
626.270 -25766060 -25256662 -24939862 -24787602 -24734710 -24714396 
629.162 -24679774 -24604608 -24475878 -24284888 -24027386 -23716812 
632.055 -23393830 -23122290 -22969048 -22977314 -23146920 -23437154 
634.948 -23784666 -24137602 -24475972 -24811888 -25160082 -25500188 
637.840 -25751696 -25789042 -25489782 -24807476 -23822494 -22735922 
640.733 -21793938 -21189174 -20980030 -21076220 -21283454 -21398402 
643.626 -21306104 -21038338 -20748362 -20621136 -20766366 -21153546 
646.518 -21615918 -21928064 -21916692 -21558476 -20998564 -20480568 
649.411 -20227822 -20342104 -20760838 -21294148 -21715150 -21869340 
652.304 -21737338 -21422500 -21075112 -20806922 -20634090 -20486290 
655.197 -20263146 -19911698 -19472280 -19065238 -18823914 -18821694 
658.089 -19020650 -19282342 -19427132 -19328612 -18976438 -18476094 
660.982 -17985090 -17630074 -17448494 -17389256 -17373754 -17389606 
663.875 -17559248 -18138640 -19445888 -21752590 -25157736 -29453230 
666.767 -34010260 -37810320 -39774388 -39316672 -36694684 -32813690 
669.660 -28696710 -25084372 -22325256 -20450730 -19298696 -18632962 
672.553 -18235110 -17967288 -17786104 -17710052 -17763490 -17931680 
675.445 -18146776 -18308338 -18324950 -18155386 -17824966 -17417524 
678.338 -17038756 -16778482 -16681148 -16739016 -16901326 -17098934 
681.231 -17269322 -17378752 -17430384 -17457788 -17513136 -17643756 
684.124 -17873302 -18190088 -18540296 -18842570 -19009042 -18975392 
687.016 -18721642 -18283496 -17740780 -17194838 -16730439 -16390381 
689.909 -16160751 -15984209 -15790565 -15530343 -15199230 -14841577 
692.802 -14529774 -14334743 -14294797 -14401259 -14606928 -14848493 
695.694 -15073986 -15261007 -15415075 -15556717 -15696460 -15818521 
698.587 -15880210 -15827755 -15619434 -15251858 -14766482 -14242791 
701.480 -13771435 -13425101 -13236162 -13191840 -13241947 -13322094 
704.372 -13371898 -13351656 -13247218 -13066465 -12832625 -12577157 
707.265 -12334519 -12139886 -12022618 -12000928 -12074537 -12223200 
710.158 -12408007 -12588069 -12728223 -12811039 -12839026 -12830727 
713.051 -12807243 -12784593 -12768152 -12759112 -12762554 -12796658 
715.943 -12888242 -13062478 -13323444 -13640384 -13944868 -14148894 
718.836 -14170542 -13967874 -13557405 -13015115 -12450575 -11970790 
721.729 -11645113 -11487959 -11465596 -11520001 -11596821 -11669724 
724.621 -11744906 -11850866 -12017236 -12257217 -12557844 -12886569 
727.514 -13202928 -13477108 -13697279 -13869104 -14006471 -14119162 
730.407 -14204567 -14247953 -14227784 -14127085 -13940216 -13676763 
733.299 -13359142 -13019648 -12693438 -12415607 -12213794 -12104603 
736.192 -12087137 -12142624 -12239822 -12345501 -12438500 -12521693 
739.085 -12622798 -12786491 -13051996 -13430530 -13889932 -14355837 
741.978 -14727856 -14912113 -14851343 -14549608 -14072010 -13526894 
744.870 -13035051 -12696655 -12569110 -12659680 -12929089 -13307891 
747.763 -13714680 -14074706 -14333300 -14464464 -14473149 -14391450 
750.656 -14267769 -14149888 -14065820 -14009198 -13939863 -13796954 
753.548 -13525899 -13107199 -12573005 -12004988 -11507772 -11170897 
756.441 -11035182 -11078174 -11227340 -11392755 -11506706 -11552944 
759.334 -11569721 -11627887 -11793923 -12095450 -12504856 -12951345 
762.227 -13348057 -13628889 -13770152 -13790374 -13729190 -13621086 
765.119 -13473446 -13268011 -12978295 -12597886 -12162182 -11748679 
768.012 -11456689 -11371258 -11529132 -11901581 -12400698 -12911046 
770.905 -13327814 -13589680 -13691500 -13676217 -13608466 -13547514 
773.797 -13526252 -13547160 -13589359 -13624201 -13629017 -13592891 
776.690 -13516006 -13405278 -13269971 -13123531 -12984823 -12880522 
779.583 -12842339 -12898342 -13059873 -13312743 -13614857 -13906427 
782.475 -14127181 -14237083 -14227496 -14121375 -13959629 -13782189 
785.368 -13607470 -13425454 -13201160 -12892906 -12472050 -11937879 
788.261 -11321612 -10675212 -10052617 -9491213 -9000259 -8564275 -8156631 
791.636 -7755407 -7354789 -6965508 -6603061 -6276304 -5975479 -5673628 
795.010 -5335272 -4932709 -4454873 -3909825 -3313225 -2674577 -1984066 
798.385 -1214254 -333895 670023 1772838 2906981 3977677 4890247 5585349 
802.242 6057736 6356639 6565821 6772008 7034494 7370230 7754660 8142234 
806.099 8490619 8780416 9022162 9250199 9505619 9821309 10209714 10661623 
809.956 11152621 11652751 12135228 12582223 12985328 13344046 13660590 
813.331 13935724 14164748 14335225 14430713 14435920 14345841 14175908 
816.706 13962343 13758290 13619526 13586978 13670404 13839660 14026367 
820.081 14142087 14103852 13863127 13423424 12842750 12219396 11667216 
823.455 11285498 11135352 11223440 11503125 11889734 12283164 12593683 
826.830 12763545 12777262 12660849 12467430 12256477 12070120 11918340 
830.205 11774750 11587511 11298964 10869358 10292187 9597884 8841381 8081164 
834.062 7358266 6683640 6037207 5380295 4672257 3888238 3027014 2108458 
837.919 1164099 225535 -685598 -1558443 -2391941 -3187892 -3946206 -4663438 
841.776 -5335108 -5956131 -6523166 -7030357 -7466549 -7813826 -8050936 
845.151 -8163492 -8155721 -8057474 -7923255 -7818219 -7797326 -7886554 
848.525 -8074452 -8318213 -8563268 -8764999 -8904086 -8990069 -9048712 
851.900 -9103031 -9159354 -9203701 -9213336 -9174407 -9098715 -9024794 
855.275 -9004998 -9080058 -9256120 -9494648 -9722517 -9858545 -9847046 
858.650 -9683699 -9422805 -9159906 -8999643 -9017752 -9236529 -9616748 
862.025 -10070876 -10491768 -10786185 -10900943 -10833437 -10626780 
864.917 -10351862 -10083179 -9878432 -9763112 -9727733 -9735995 -9741049 
868.292 -9704080 -9609554 -9468812 -9316964 -9197732 -9147285 -9180377 
871.667 -9286802 -9435742 -9588682 -9712245 -9787280 -9811965 -9797485 
875.042 -9761655 -9721641 -9691929 -9683829 -9705150 -9760326 -9845621 
878.417 -9948387 -10046498 -10114936 -10135167 -10105095 -10042289 -9980122 
881.791 -9953956 -9986209 -10074211 -10190419 -10291291 -10333451 -10289156 
885.166 -10153327 -9942266 -9684541 -9411100 -9150108 -8928075 -8773020 
888.541 -8714112 -8774837 -8959073 -9239480 -9555233 -9824177 -9968173 
891.916 -9940776 -9746168 -9441448 -9114646 -8851983 -8704564 -8673613 
895.291 -8716840 -8774123 -8797048 -8768992 -8707909 -8651104 -8630608 
898.666 -8655522 -8706545 -8748340 -8746619 -8684428 -8565737 -8407757 
902.040 -8226474 -8027094 -7802859 -7545261 -7255351 -6950443 -6658732 
905.415 -6404633 -6193115 -6004499 -5801482 -5549335 -5234780 -4876719 
908.790 -4517902 -4204273 -3958814 -3768536 -3587803 -3360408 -3047356 
912.165 -2646717 -2194909 -1747316 -1347754 -1003827 -678419 -303136 194639 
916.022 861510 1701048 2673447 3713992 4755896 5750745 6677651 7542578 
919.879 8371566 9202817 10079167 11043746 12132605 13368100 14751718 
923.253 16262371 17864810 19526552 21236292 23015424 24913870 26990600 
926.628 29287094 31807586 34514316 37345936 40246156 43189844 46191984 
930.003 49294888 52541792 55950736 59503820 63158868 66874736 70636704 
933.378 74464232 78397896 82470624 86681704 90985448 95304992 99559984 
936.753 103695504 107691232 111551256 115278448 118853712 122229632 
939.645 125344976 128146976 130612672 132751856 134597008 136184640 
942.538 137541712 138685056 139633296 140421488 141112208 141793792 
945.431 142565904 143519648 144721376 146202336 147964816 149993872 
948.324 152270208 154773840 157476032 160319856 163203392 165972160 
951.216 168434288 170396064 171711808 172334320 172346592 171958880 
954.109 171462752 171144912 171187632 171586560 172119744 172385712 
957.002 171917088 170342848 167544160 163721744 159334992 154948112 
959.894 151067952 148036000 145994912 144908576 144617024 144901744 
962.787 145547456 146377184 147257824 148079104 148729152 149084096 
965.680 149022736 148451712 147326800 145647984 143436064 140701808 
968.572 137434752 133616744 129251552 124390960 119137664 113620176 
971.465 107957440 102230912 96479728 90715432 84947208 79200880 73525072 
974.840 67983280 62640160 57548748 52743620 48239464 44031732 40100044 
978.215 36413796 32940834 29658368 26560762 23661582 20986712 18561472 
981.590 16397201 14483844 12793574 11291653 9949473 8750055 7685450 6746667 
985.447 5913484 5152670 4424718 3698486 2963557 2234200 1539781 910084 
989.303 359653 -118736 -547195 -947262 -1324532 -1663650 -1936766 -2121386 
993.160 -2218743 -2260771 -2300852 -2393193 -2569911 -2829060 -3137105 
996.535 -3447035 -3720149 -3941675 -4122524 -4287090 -4454316 -4625182 
999.910 -4781529 -4898113 -4958916 -4969792 -4957540 -4958458 -4999763 
1003.285 -5087537 -5205447 -5325518 -5425530 -5501800 -5572790 -5668821 
1006.660 -5816783 -6026949 -6288192 -6573559 -6853064 -7104391 -7317584 
1010.034 -7491138 -7623993 -7710033 -7740760 -7712930 -7638382 -7547248 
1013.409 -7481563 -7480293 -7564050 -7727024 -7940140 -8164338 -8368951 
1016.784 -8542866 -8695990 -8849060 -9017980 -9203150 -9389020 -9552673 
1020.159 -9678384 -9767615 -9840406 -9924810 -10043228 -10199805 -10379555 
1023.534 -10555318 -10700557 -10800730 -10856833 -10880294 -10884851 
1026.426 -10878324 -10863556 -10842841 -10825325 -10827845 -10870826 
1029.318 -10966274 -11109181 -11274705 -11425804 -11527680 -11564172 
1032.211 -11543652 -11494187 -11447363 -11419930 -11403535 -11366417 
1035.103 -11266698 -11070648 -10767342 -10371047 -9912925 -9427410 -8941383 
1038.478 -8469403 -8015873 -7580037 -7157291 -6736743 -6295246 -5794812 
1041.852 -5187866 -4430079 -3497326 -2397509 -1169612 132357 1462178 2801086 
1045.708 4163270 5584947 7102860 8731224 10451715 12218579 13980103 15702041 
1049.565 17383792 19059860 20786352 22617810 24585514 26684450 28875554 
1052.939 31098946 33294246 35420308 37470424 39475500 41495856 43600456 
1056.314 45839784 48223096 50707060 53201044 55591660 57779296 59711084 
1059.688 61396096 62895568 64291568 65654032 67018224 68384904 69739896 
1063.062 71085008 72458952 73940416 75629096 77613632 79939384 82590360 
1066.437 85491896 88534296 91603016 94603144 97465656 100140928 102587912 
1069.811 104767920 106645080 108190400 109379048 110185432 110579496 
1072.703 110535392 110053288 109187152 108056184 106831056 105691584 
1075.596 104776696 104147984 103777416 103566456 103388632 103140960 
1078.488 102781696 102336040 101871488 101454768 101114504 100827176 
1081.380 100529040 100147520 99638872 99008440 98310312 97625056 97031968 
1084.755 96585136 96300608 96153264 96083984 96008664 95828624 95439528 
1088.129 94745632 93677016 92211152 90384168 88284552 86027896 83722640 
1091.504 81443104 79218608 77042208 74889056 72736968 70579480 68426400 
1094.878 66296956 64207896 62167456 60173588 58218944 56298600 54415704 
1098.252 52585248 50834060 49196096 47707120 46396528 45280548 44356600 
1101.627 43602984 42985564 42466128 42012456 41605092 41238592 40921616 
1105.001 40673388 40519564 40487632 40601672 40877712 41316968 41903044 
1108.376 42602176 43370824 44169888 44976376 45793132 46645728 47571720 
1111.750 48605920 49766268 51046464 52419412 53846188 55287860 56713304 
1115.124 58103064 59449712 60758324 62045244 63337328 64665876 66057244 
1118.499 67523880 69058144 70634520 72221184 73797008 75364984 76954024 
1121.873 78606832 80357760 82212976 84142592 86089224 87992472 89814280 
1125.248 91553272 93239648 94913808 96602056 98302008 99985024 101613080 
1128.622 103159528 104618608 106001312 107317920 108565984 109731984 
1131.514 110810880 111831848 112874256 114057064 115505984 117307248 
1134.407 119470624 121914784 124487464 127013240 129351776 131436128 
1137.299 133274528 134918832 136423728 137820144 139118336 140331488 
1140.191 141503312 142713760 144060544 145620048 147413280 149394416 
1143.084 151472672 153558704 155611360 157656592 159766768 162011520 
1145.976 164407296 166892064 169340688 171612384 173606528 175292864 
1148.868 176700048 177875424 178842832 179586656 180072176 180285968 
1151.761 180268304 180110656 179916416 179746864 179584496 179334720 
1154.653 178870592 178097216 177004208 175673184 174239936 172831376 
1157.545 171514608 170278896 169060192 167791200 166447552 165064464 
1160.438 163716768 162472000 161346064 160282032 159163392 157856704 
1163.330 156265296 154365328 152208384 149893248 147525424 145180704 
1166.222 142889376 140638784 138391504 136106528 133756488 131335424 
1169.115 128856856 126346512 123832848 121337064 118867520 116417920 
1172.007 113973232 111517672 109046112 106570152 104119480 101732760 
1174.899 99443736 97268344 95195488 93189720 91199008 89169264 87057032 
1178.274 84838392 82511776 80093192 77608328 75084216 72543216 69998696 
1181.648 67453288 64900392 62328068 59727052 57097416 54454876 51828840 
1185.022 49254692 46761616 44360856 42042676 39783648 37563656 35380728 
1188.397 33258330 31238210 29363308 27656862 26111364 24691314 23351232 
1191.771 22055812 20794556 19580692 18438864 17385240 16414680 15500500 
1195.146 14607771 13711438 12811728 11933734 11117641 10398159 9789181 
1198.520 9278768 8836951 8431156 8039714 7656953 7290298 6950348 6643668 
1202.376 6370659 6130350 5926483 5770522 5676180 5651272 5688366 5763739 
1206.233 5845439 5906564 5938138 5953254 5980195 6049840 6181467 6376913 
1210.089 6623818 6906783 7217961 7560649 7944101 8373458 8840975 9326837 
1213.946 9808769 10276308 10741941 11240952 11820407 12519707 13354808 
1217.320 14312452 15358913 16458556 17589660 18750842 19954684 21213918 
1220.695 22529402 23886552 25262738 26641610 28023670 29430388 30895148 
1224.069 32448974 34105964 35857456 37677652 39537736 41419344 43322280 
1227.443 45261792 47260508 49337428 51501616 53751604 56078636 58470628 
1230.818 60912964 63387124 65868840 68328824 70738424 73075304 75328408 
1234.192 77498200 79592832 81621200 83587176 85486048 87303024 89015576 
1237.567 90597240 92023496 93277888 94358008 95278744 96067736 96756584 
1240.941 97368416 97911152 98379928 98771248 99100632 99417448 99804280 
1244.315 100361720 101180592 102318552 103787776 105558552 107576392 
1247.208 109784592 112138400 114604464 117140416 119666984 122046688 
1250.100 124089344 125590248 126393112 126446176 125821264 124679352 
1252.992 123204304 121541376 119767120 117900488 115941096 113908704 
1255.885 111864768 109902312 108117592 106577984 105304960 104276288 
1258.777 103445720 102767800 102213976 101772928 101434296 101167744 
1261.669 100909088 100564664 100034752 99243648 98164912 96824128 95281792 
1265.044 93605568 91844032 90015536 88111536 86110592 83994576 81758488 
1268.418 79412944 76979264 74484096 71954960 69417216 66892824 64398968 
1271.792 61947632 59546384 57201048 54918468 52707296 50577272 48535440 
1275.167 46583312 44716636 42927108 41207440 39554900 37972056 36464892 
1278.541 35038260 33692448 32423124 31223434 30087730 29013258 27999390 
1281.916 27044584 26142858 25284056 24456812 23653430 22873078 22121704 
1285.290 21406888 20732098 20093058 19478936 18877898 18286018 17710994 
1288.664 17170128 16681889 16256180 15887661 15557298 15241771 14924519 
1292.039 14604619 14294954 14015280 13779563 13587560 13424894 13270967 
1295.413 13110980 12944737 12786373 12656789 12570763 12528745 12516126 
1298.788 12511387 12497916 12471625 12441754 12422320 12422729 12441141 
1302.162 12465759 12484617 12494404 12504941 12533792 12594434 12683910 
1305.536 12780230 12850804 12869882 12835925 12777467 12744300 12785486 
1308.911 12925348 13150083 13413344 13658402 13845852 13972403 14072912 
1312.285 14204151 14416909 14731083 15126136 15552284 15953619 16290614 
1315.660 16552687 16755959 16931556 17112256 17324686 17589280 17925062 
1319.034 18351928 18886446 19530780 20263170 21037208 21795730 22491296 
1322.408 23105710 23656928 24191258 24761322 25402426 26116818 26876800 
1325.783 27642174 28383994 29098742 29806752 30537354 31307894 32109630 
1329.157 32910700 33672580 34372132 35013944 35628364 36253016 36910924 
1332.531 37593644 38262708 38867432 39368504 39754416 40043324 40269020 
1335.906 40460028 40624592 40749984 40821976 40853028 40903228 41080820 
1339.280 41510364 42279568 43391076 44749104 46191800 47548944 48693424 
1342.655 49570456 50200740 50662752 51060852 51487852 51997696 52596840 
1346.029 53254232 53922524 54559532 55144540 55683368 56205780 56754196 
1349.403 57370796 58086172 58912496 59842300 60853760 61919548 63019172 
1352.778 64147288 65313956 66537216 67829128 69183504 70572648 71955272 
1356.152 73292672 74562960 75763792 76902168 77978976 78977384 79865096 
1359.527 80611152 81213424 81722736 82251984 82962688 84025936 85565448 
1362.901 87605184 90055856 92755144 95537992 98290120 100963936 103563168 
1366.275 106120344 108684576 111320424 114113296 117164624 120567760 
1369.168 124366472 128514480 132859096 137166752 141190992 144757520 
1372.060 147830576 150531072 153101552 155822832 158910928 162435856 
1374.952 166314080 170383104 174497792 178586416 182639696 186667776 
1377.845 190658304 194564000 198320864 201878752 205205408 208250832 
1380.737 210894272 212921664 214073840 214170224 213240128 211558240 
1383.629 209535456 207541472 205774240 204229504 202759872 201190896 
1386.522 199453376 197663472 196077936 194949408 194393968 194357472 
1389.414 194669680 195129248 195567648 195873312 195967152 195748480 
1392.306 195045728 193613248 191204112 187719808 183355664 178595408 
1395.199 173985248 169841968 166123728 162514912 158617712 154147728 
1398.091 149078352 143680512 138402848 133625296 129449976 125677240 
1400.983 121952688 117952128 113506008 108638576 103538688 98482576 93735600 
1404.358 89468608 85723808 82441144 79519056 76863768 74402048 72065600 
1407.732 69773432 67435176 64976072 62374424 59684432 57025696 54536652 
1411.107 52313104 50366176 48621820 46959048 45263228 43468488 41568996 
1414.481 39596716 37583492 35526120 33378928 31077304 28587148 25965680 
1417.855 23414662 21274288 19906776 19488050 19865154 20630592 21342948 
1421.230 21699200 21580858 21025348 20186278 19295308 18605184 18298598 
1424.604 18403084 18779350 19199092 19447784 19389470 18986366 18293966 
1427.979 17445460 16617645 15977785 15632858 15609330 15870856 16348341 
1431.353 16957154 17598184 18155680 18505038 18532044 18153264 17340132 
1434.727 16153205 14794295 13639118 13159270 13675669 15121779 17091198 
1438.102 19119272 20896690 22303076 23346792 24101550 24660836 25108384 
1441.476 25501540 25868112 26214406 26537198 26827770 27069550 27233740 
1444.850 27282462 27185552 26945224 26622584 26348452 26301876 26642068 
1448.225 27417508 28521402 29738018 30847654 31712194 32306608 32707338 
1451.599 33047080 33447098 33946572 34470048 34853320 34901792 34451540 
1454.974 33430922 31955212 30446718 29638998 30250224 32472398 35882184 
1458.348 39869320 44009840 48108296 52073928 55806820 59146544 61869264 
1461.722 63703248 64344400 63491388 60938352 56750532 51427760 45854916 
1465.097 40956024 37306292 35021916 33921996 33740720 34248960 35279300 
1468.471 36707160 38428800 40356824 42428052 44607168 46865320 49119772 
1471.846 51151980 52585732 53017868 52229764 50272752 47387168 43904324 
1475.220 40212568 36743252 33905300 31959028 30910980 30519972 30420632 
1478.594 30279780 29901978 29265932 28499286 27808134 27375688 27269618 
1481.969 27409920 27615972 27696450 27521882 27050086 26308986 25360238 
1485.343 24262028 23045854 21714910 20259940 18686810 17041228 15424001 
1488.718 13991052 12935521 12436470 12581813 13304207 14386186 15537415 
1492.092 16484642 17020828 17012110 16389046 15148678 13371756 11245270 
1495.466 9055554 7122327 5683867 4806583 4394426 4283450 4338935 4495420 
1499.323 4737003 5050518 5387373 5655334 5739094 5532390 4958444 3966877 
1503.179 2510852 518857 -2118715 -5521790 -9702784 -14334871 -18533914 
1506.554 -21072588 -21207286 -19273308 -16282523 -13173711 -10490797 
1509.446 -8436192 -7004732 -6080341 -5496173 -5086751 -4743906 -4457136 
1512.820 -4313369 -4452053 -5002875 -6030773 -7497814 -9234615 -10934515 
1516.195 -12217820 -12795178 -12649028 -12067931 -11492993 -11323291 
1519.087 -11810465 -13017334 -14768083 -16588988 -17782160 -17793356 
1521.979 -16635645 -14855281 -13094436 -11767093 -11015508 -10783858 
1524.872 -10885594 -11064770 -11078174 -10788512 -10200452 -9414311 -8546017 
1528.246 -7683145 -6889592 -6235381 -5818875 -5762966 -6185699 -7160160 
1531.620 -8660101 -10490992 -12228676 -13280319 -13177632 -11940587 
1534.513 -10094801 -8309469 -7075607 -6644048 -7105140 -8464821 -10668132 
1537.887 -13571311 -16888354 -20161116 -22824048 -24385264 -24632034 
1540.780 -23708592 -22016358 -20026412 -18122402 -16524561 -15276650 
1543.672 -14267223 -13280962 -12094226 -10604082 -8910546 -7278030 -6006329 
1547.046 -5313179 -5280610 -5838163 -6760460 -7697371 -8285414 -8326697 
1550.421 -7900317 -7298035 -6852347 -6798072 -7211978 -8006049 -8958359 
1553.795 -9808013 -10403656 -10810232 -11287489 -12177646 -13812329 
1556.687 -16459582 -20240662 -24889522 -29332494 -31618900 -30214802 
1559.580 -25698544 -20113890 -15070882 -11177451 -8457120 -6746954 -5859184 
1562.954 -5604094 -5765615 -6089914 -6323297 -6302136 -6032766 -5687527 
1566.328 -5517537 -5747402 -6495976 -7720873 -9179015 -10438593 -11017156 
1569.703 -10636965 -9411360 -7763088 -6167047 -4954363 -4274196 -4148681 
1573.077 -4541675 -5401348 -6666791 -8230082 -9870108 -11209484 -11807982 
1576.452 -11410700 -10138113 -8395862 -6620977 -5115110 -4018928 -3348867 
1579.826 -3035380 -2954792 -2967594 -2963941 -2899369 -2795942 -2709976 
1583.200 -2688013 -2738458 -2827809 -2902562 -2922704 -2885940 -2828435 
1586.575 -2800913 -2838672 -2941497 -3072526 -3178979 -3221243 -3195951 
1589.949 -3137960 -3100655 -3127960 -3234662 -3401011 -3585371 -3745082 
1593.324 -3855180 -3912550 -3927359 -3907920 -3852093 -3749911 -3597070 
1596.698 -3408080 -3218415 -3074500 -3014354 -3052785 -3175920 -3348210 
1600.072 -3529372 -3692158 -3830483 -3952675 -4065608 -4160791 -4212904 
1603.447 -4194232 -4096693 -3947979 -3808214 -3746560 -3812254 -4011706 
1606.821 -4301689 -4603512 -4834386 -4942177 -4923864 -4815577 -4662356 
1610.196 -4492029 -4306512 -4098432 -3879285 -3701554 -3657201 -3856395 
1613.570 -4395705 -5330199 -6642743 -8204235 -9739785 -10858482 -11209387 
1616.944 -10697034 -9544374 -8129088 -6780065 -5699137 -4987382 -4694644 
1620.319 -4846477 -5439372 -6411098 -7602113 -8743534 -9514034 -9676894 
1623.693 -9217033 -8357836 -7437561 -6751260 -6456150 -6549571 -6889429 
1627.068 -7242935 -7367852 -7114169 -6493169 -5660415 -4826226 -4164500 
1630.442 -3770638 -3672971 -3869695 -4369104 -5212813 -6475215 -8230895 
1633.816 -10486787 -13072091 -15528552 -17153720 -17354940 -16102040 
1636.709 -13943873 -11569205 -9441772 -7742648 -6470384 -5543709 -4868626 
1640.083 -4374385 -4027858 -3828282 -3790905 -3934189 -4278297 -4854340 
1643.457 -5713492 -6924388 -8548648 -10584745 -12888724 -15105829 -16698206 
1646.832 -17153816 -16302373 -14461868 -12248005 -10251295 -8864514 -8298352 
1650.206 -8674165 -10101631 -12685393 -16387830 -20656492 -24050022 
1653.099 -24839988 -22684350 -18892570 -14910128 -11463143 -8729830 -6668945 
1656.473 -5186687 -4185929 -3570583 -3246962 -3136315 -3195786 -3430434 
1659.847 -3882667 -4597840 -5572103 -6701573 -7756741 -8425890 -8449386 
1663.222 -7779557 -6632529 -5377425 -4366283 -3831205 -3869958 -4474157 
1666.596 -5561864 -6998569 -8611476 -10202524 -11563817 -12495585 -12839187 
1669.970 -12527584 -11635339 -10382952 -9075548 -8013108 -7421601 -7417757 
1673.345 -7987604 -8951575 -9937376 -10452501 -10132190 -9010450 -7502080 
1676.719 -6105989 -5157318 -4775400 -4913642 -5417251 -6081321 -6731653 
1680.094 -7314326 -7933666 -8806658 -10174721 -12212988 -14913778 -17897500 
1683.468 -20255682 -20851578 -19254766 -16231457 -12993248 -10334875 
1686.360 -8506704 -7445899 -6965214 -6842105 -6858870 -6835060 -6654522 
1689.735 -6280582 -5750084 -5155288 -4619707 -4275345 -4243912 -4628526 
1693.109 -5508965 -6930258 -8855651 -11076269 -13139154 -14470136 -14766769 
1696.484 -14273347 -13574298 -13214981 -13535727 -14669687 -16500032 
1699.376 -18498226 -19667170 -19095648 -16867158 -13981831 -11409183 
1702.268 -9619827 -8711774 -8609755 -9140959 -10026942 -10886854 -11338204 
1705.643 -11169927 -10437687 -9386685 -8293183 -7354626 -6658438 -6197034 
1709.017 -5905307 -5709209 -5569061 -5503142 -5579758 -5885498 -6486444 
1712.391 -7394141 -8549948 -9839305 -11136729 -12361217 -13509871 -14643162 
1715.766 -15819481 -17000428 -17974600 -18379044 -17878518 -16407292 
1718.658 -14246350 -11860958 -9677121 -7963922 -6827787 -6248739 -6116084 
1722.032 -6258505 -6481450 -6615266 -6565531 -6332571 -5993290 -5653972 
1725.407 -5408743 -5318743 -5411361 -5689784 -6139476 -6728293 -7401666 
1728.781 -8083103 -8692061 -9178950 -9561845 -9940452 -10477052 -11350180 
1732.156 -12684942 -14449593 -16321361 -17640668 -17700286 -16319862 
1735.048 -14045321 -11687401 -9831563 -8733824 -8424201 -8795619 -9628026 
1738.422 -10590792 -11305374 -11500544 -11161919 -10518289 -9872181 -9436228 
1741.797 -9267570 -9286478 -9337654 -9274964 -9040306 -8693749 -8378702 
1745.171 -8250272 -8409219 -8866397 -9539058 -10281034 -10941396 -11423868 
1748.546 -11710849 -11835164 -11820751 -11632629 -11172995 -10340894 
1751.438 -9124510 -7653521 -6157443 -4873147 -3973425 -3542912 -3578339 
1754.812 -3990005 -4603217 -5182955 -5504254 -5448370 -5059078 -4511049 
1758.187 -4020209 -3762295 -3830121 -4221107 -4837040 -5495159 -5964858 
1761.561 -6039954 -5627088 -4792966 -3734143 -2691536 -1870590 -1401790 
1764.935 -1335994 -1650612 -2257014 -3009352 -3733782 -4286401 -4620887 
1768.310 -4817215 -5043718 -5478603 -6236949 -7320581 -8584871 -9734472 
1771.684 -10396928 -10301646 -9459993 -8163753 -6791189 -5612860 -4727420 
1775.059 -4098794 -3626972 -3215586 -2823200 -2480737 -2269605 -2270297 
1778.433 -2511902 -2940805 -3423826 -3789164 -3900006 -3726062 -3362052 
1781.807 -2977729 -2734869 -2724727 -2941431 -3290798 -3626972 -3812780 
1785.182 -3783022 -3571306 -3286030 -3055713 -2984771 -3134934 -3530686 
1788.556 -4172442 -5047877 -6133072 -7378408 -8685078 -9884942 -10753087 
1791.931 -11079950 -10785280 -9985853 -8943752 -7933536 -7136399 -6611775 
1795.305 -6324636 -6191645 -6130492 -6098931 -6111641 -6225484 -6498881 
1798.679 -6947280 -7514097 -8071979 -8459589 -8545432 -8288112 -7751599 
1802.054 -7066121 -6366726 -5748546 -5254455 -4887727 -4634001 -4480847 
1805.428 -4425782 -4471369 -4614986 -4839137 -5112294 -5397093 -5664438 
1808.802 -5903051 -6116639 -6308145 -6461276 -6531717 -6458697 -6196087 
1812.177 -5745637 -5171593 -4583578 -4096529 -3790577 -3687296 -3746166 
1815.551 -3880992 -3993715 -4014431 -3929723 -3780755 -3633018 -3538902 
1818.926 -3514056 -3538344 -3577879 -3617049 -3680627 -3831402 -4144481 
1822.300 -4669732 -5398566 -6243122 -7041409 -7602862 -7791826 -7604816 
1825.674 -7181833 -6744801 -6509490 -6618660 -7109508 -7899862 -8792631 
1829.049 -9514844 -9803510 -9516790 -8700667 -7560598 -6362318 -5330460 
1832.423 -4597611 -4198137 -4088946 -4180383 -4368743 -4567972 -4730632 
1835.798 -4851719 -4950268 -5044078 -5129584 -5179779 -5161149 -5061371 
1839.172 -4911513 -4789131 -4796964 -5030224 -5547340 -6350433 -7371534 
1842.546 -8466640 -9430652 -10052844 -10206472 -9912180 -9316121 -8604070 
1845.921 -7919936 -7334721 -6858153 -6462679 -6110105 -5770258 -5432795 
1849.295 -5107218 -4817019 -4587316 -4434343 -4358935 -4344731 -4361723 
1852.670 -4374877 -4355458 -4291584 -4192033 -4082743 -3995356 -3954415 
1856.044 -3966300 -4018436 -4084482 -4138737 -4168011 -4178086 -4188686 
1859.418 -4222584 -4291191 -4388096 -4490849 -4572988 -4618002 -4629378 
1862.793 -4630919 -4658881 -4749936 -4933430 -5227971 -5645175 -6191383 
1866.167 -6865197 -7645447 -8473204 -9238572 -9788479 -9967946 -9686162 
1869.542 -8969297 -7958424 -6852184 -5833390 -5020758 -4456021 -4116648 
1872.916 -3942299 -3864802 -3834687 -3832092 -3860040 -3923681 -4011082 
1876.290 -4087568 -4107557 -4037706 -3879120 -3671854 -3479018 -3357186 
1879.665 -3331310 -3384738 -3472148 -3544555 -3576663 -3578043 -3583794 
1883.039 -3628155 -3720247 -3835048 -3927425 -3962557 -3947060 -3938228 
1886.413 -4024476 -4283284 -4739547 -5335730 -5934070 -6353959 -6447010 
1889.788 -6170510 -5612991 -4949318 -4362543 -3977956 -3835967 -3898692 
1893.162 -4078016 -4274557 -4414860 -4470058 -4450938 -4385866 -4297228 
1896.537 -4190786 -4060225 -3899874 -3715681 -3525000 -3348900 -3200720 
1899.911 -3080652 -2978749 -2886401 -2807959 -2765160 -2788996 -2905327 
1903.285 -3119670 -3411137 -3738512 -4057304 -4338498 -4579349 -4799159 
1906.660 -5020398 -5248235 -5457990 -5598926 -5615640 -5476247 -5194971 
1910.034 -4830847 -4466516 -4177102 -4007340 -3962197 -4015744 -4129449 
1913.409 -4277805 -4459989 -4702314 -5041392 -5501996 -6072434 -6689892 
1916.783 -7242740 -7599802 -7661562 -7409712 -6923834 -6355429 -5876411 
1920.157 -5628985 -5689489 -6049823 -6615299 -7225632 -7700886 -7906109 
1923.532 -7803054 -7464171 -7034139 -6668292 -6474203 -6481482 -6642384 
1926.906 -6860044 -7032542 -7095296 -7043300 -6922040 -6796604 -6717723 
1930.281 -6703269 -6739842 -6802606 -6877199 -6971637 -7109932 -7309927 
1933.655 -7563269 -7827071 -8036007 -8130259 -8085835 -7929859 -7731614 
1937.029 -7576000 -7531584 -7632815 -7880437 -8255344 -8736877 -9308759 
1940.404 -9950233 -10615949 -11219914 -11640855 -11760289 -11521872 
1943.296 -10975223 -10268543 -9592701 -9102771 -8868378 -8860067 -8973841 
1946.670 -9084374 -9108741 -9046959 -8975918 -8999903 -9189947 -9541944 
1950.045 -9975426 -10368232 -10617920 -10691086 -10636221 -10544970 
1952.937 -10495196 -10506096 -10530061 -10484264 -10308020 -10010268 
1955.829 -9680588 -9449651 -9432046 -9673524 -10131218 -10689469 -11210001 
1959.204 -11596240 -11830553 -11962893 -12063065 -12170462 -12275449 
1962.096 -12336709 -12326596 -12268105 -12241529 -12345662 -12641303 
1964.989 -13107199 -13630366 -14037911 -14173076 -13974067 -13508362 
1967.881 -12931437 -12401922 -12010274 -11754226 -11563817 -11362866 
1970.773 -11128139 -10920200 -10856672 -11054111 -11566785 -12354164 
1973.666 -13288739 -14208768 -14986319 -15581173 -16030291 -16399954 
1976.558 -16719887 -16952376 -17007692 -16805260 -16334381 -15670445 
1979.450 -14934619 -14231856 -13607021 -13042543 -12487826 -11909963 
1982.343 -11331523 -10838640 -10547331 -10551276 -10873702 -11444136 
1985.235 -12109339 -12677798 -12986431 -12955108 -12606448 -12041924 
1988.127 -11399791 -10815661 -10396280 -10205728 -10259774 -10526568 
1991.020 -10932092 -11372098 -11731716 -11913444 -11870114 -11628403 
1993.912 -11284455 -10970830 -10805028 -10847623 -11079853 -11412152 
1996.804 -11714880 -11871082 -11821654 -11586240 -11244453 -10897712 
1999.697 -10631112 -10494743 -10501665 -10640101 -10885852 -11209678 
2002.589 -11574205 -11927983 -12203870 -12334648 -12281988 -12067898 
2005.481 -11783120 -11558332 -11504770 -11658952 -11960025 -12271970 
2008.374 -12440593 -12369011 -12062646 -11625371 -11204544 -10922527 
2011.266 -10831885 -10911897 -11093678 -11313962 -11553589 -11847255 
2014.158 -12250678 -12789322 -13418675 -14015871 -14415202 -14479943 
2017.051 -14168939 -13563410 -12824357 -12122357 -11576560 -11230376 
2019.943 -11061668 -11017705 -11049265 -11130464 -11250200 -11390559 
2022.835 -11507610 -11538651 -11430258 -11179324 -10854669 -10579474 
2025.728 -10476437 -10604599 -10924369 -11302501 -11561817 -11559880 
2028.620 -11262016 -10764724 -10252913 -9918495 -9885201 -10166468 -10662895 
2031.994 -11204124 -11612467 -11766932 -11628597 -11233088 -10661860 
2034.887 -10021503 -9430457 -9010580 -8865423 -9054033 -9565443 -10312906 
2038.261 -11143447 -11874145 -12341218 -12457690 -12245943 -11826523 
2041.153 -11360122 -10977453 -10734274 -10607606 -10528347 -10434452 
2044.046 -10313521 -10213204 -10210744 -10362247 -10659467 -11017059 
2046.938 -11294980 -11354570 -11118902 -10609352 -9932906 -9234453 -8638079 
2050.313 -8210184 -7953805 -7828274 -7779296 -7763479 -7757392 -7754235 
2053.688 -7751599 -7743625 -7719798 -7674323 -7614323 -7564343 -7556366 
2057.063 -7616667 -7748442 -7925988 -8098258 -8207128 -8209047 -8094128 
2060.439 -7889938 -7655051 -7461175 -7377951 -7455573 -7714004 -8132796 
2063.814 -8653053 -9184756 -9622322 -9867096 -9854237 -9574972 -9086840 
2067.189 -8500530 -7945574 -7527677 -7296765 -7236027 -7276954 -7331267 
2070.564 -7329378 -7246357 -7106053 -6960160 -6857728 -6818100 -6824656 
2073.940 -6833984 -6802606 -6710186 -6572123 -6430850 -6335184 -6317844 
2077.315 -6382464 -6504854 -6646169 -6772073 -6866306 -6930910 -6977181 
2080.690 -7012296 -7031433 -7018588 -6955073 -6833332 -6662778 -6468653 
2084.065 -6282215 -6129022 -6021067 -5954792 -5917270 -5893768 -5875594 
2087.441 -5862812 -5861145 -5877228 -5914622 -5972767 -6047666 -6132582 
2090.816 -6219801 -6298740 -6355037 -6372571 -6338351 -6250340 -6121997 
2094.191 -5981623 -5862257 -5786998 -5757015 -5748808 -5725134 -5652010 
2097.566 -5519172 -5347611 -5186687 -5090615 -5099294 -5220049 -5426054 
2100.942 -5665975 -5886120 -6049202 -6145585 -6189130 -6205103 -6213889 
2104.317 -6224211 -6233388 -6237406 -6237112 -6242632 -6265722 -6309451 
2107.692 -6358857 -6383280 -6346416 -6226431 -6030511 -5798605 -5592024 
2111.067 -5471274 -5472190 -5593104 -5794322 -6015675 -6197851 -6304782 
2114.443 -6330285 -6294821 -6229142 -6160612 -6103473 -6061063 -6031949 
2117.818 -6021655 -6044170 -6120429 -6266343 -6482625 -6746530 -7016013 
2121.193 -7240394 -7377626 -7407790 -7339380 -7204483 -7048908 -6916594 
2124.568 -6838485 -6824623 -6865393 -6939323 -7023837 -7104749 -7181931 
2127.944 -7268091 -7382023 -7537348 -7732232 -7943752 -8131625 -8248939 
2131.319 -8259602 -8153477 -7956439 -7726211 -7534581 -7440297 -7466744 
2134.694 -7590034 -7749906 -7871131 -7896413 -7809823 -7645545 -7473421 
2138.069 -7373782 -7407431 -7596904 -7919091 -8314020 -8703135 -9015610 
2141.445 -9204869 -9260921 -9208275 -9098975 -8999123 -8971147 -9053644 
2144.820 -9245967 -9503013 -9744224 -9876230 -9827061 -9571309 -9151016 
2148.195 -8664616 -8238405 -7980578 -7950128 -8143982 -8508134 -8967544 
2151.570 -9458566 -9949682 -10445709 -10969860 -11536360 -12130573 -12706567 
2154.946 -13201321 -13562961 -13773522 -13858546 -13872121 -13873662 
2157.839 -13902897 -13973554 -14075924 -14193023 -14305056 -14386835 
2160.732 -14394816 -14267480 -13938354 -13371608 -12594281 -11712461 
2163.625 -10888955 -10286470 -10002756 -10031734 -10267475 -10550208 
2166.518 -10731720 -10737797 -10590630 -10387384 -10239515 -10212136 
2169.411 -10291680 -10397542 -10427368 -10320703 -10099819 -9867031 -9757961 
2172.786 -9872278 -10214790 -10681323 -11091094 -11261532 -11091610 
2175.679 -10611518 -9967687 -9359770 -8954496 -8825100 -8928887 -9137552 
2179.054 -9298284 -9302792 -9123310 -8815100 -8476356 -8201633 -8041016 
2182.430 -7986628 -7987865 -7985425 -7940238 -7847540 -7726992 -7606444 
2185.805 -7502895 -7418832 -7346351 -7282559 -7240101 -7246031 -7329932 
2189.180 -7506086 -7757132 -8032690 -8261878 -8377987 -8344769 -8168402 
2192.555 -7895990 -7601137 -7357298 -7215204 -7184994 -7237657 -7316802 
2195.931 -7363813 -7338858 -7237070 -7088679 -6949628 -6878536 -6915127 
2199.306 -7062958 -7289108 -7533278 -7730540 -7831138 -7818024 -7708861 
2202.681 -7547508 -7380297 -7238471 -7126034 -7024196 -6904267 -6746823 
2206.056 -6555707 -6359478 -6201215 -6121344 -6139508 -6249164 -6418150 
2209.432 -6605379 -6775955 -6916040 -7033781 -7150219 -7283373 -7435346 
2212.807 -7586778 -7704304 -7754333 -7720222 -7610643 -7457429 -7303281 
2216.182 -7186917 -7129130 -7128935 -7167949 -7224459 -7284905 -7350815 
2219.557 -7435607 -7553923 -7707039 -7876076 -8022670 -8102681 -8084729 
2222.933 -7965483 -7773113 -7561250 -7387822 -7293506 -7284122 -7328759 
2226.308 -7372641 -7362771 -7269721 -7102337 -6903550 -6732665 -6637881 
2229.683 -6636151 -6705259 -6795886 -6853326 -6843215 -6765125 -6651357 
2233.058 -6550583 -6504136 -6527540 -6605966 -6704933 -6790536 -6847813 
2236.434 -6890211 -6952823 -7074824 -7278779 -7557701 -7875458 -8181214 
2239.809 -8427970 -8590621 -8671371 -8694009 -8686506 -8665850 -8627621 
2243.184 -8550078 -8404410 -8171654 -7853560 -7476059 -7081083 -6717331 
2246.559 -6425855 -6235413 -6158881 -6194193 -6325551 -6526822 -6762645 
2249.935 -6992473 -7176683 -7283732 -7298426 -7226805 -7094024 -6936943 
2253.310 -6792298 -6684280 -6619248 -6586907 -6567163 -6539779 -6491896 
2256.685 -6421774 -6335837 -6244983 -6159338 -6088019 -6037536 -6013944 
2260.060 -6021786 -6062893 -6132876 -6220715 -6310039 -6384228 -6433037 
2263.436 -6457326 -6468980 -6486934 -6526332 -6591541 -6671685 -6743985 
2266.811 -6781566 -6765190 -6690447 -6570133 -6428336 -6291294 -6177141 
2270.186 -6091776 -6027929 -5970936 -5906287 -5826133 -5731903 -5633302 
2273.561 -5544166 -5478996 -5447879 -5455372 -5498594 -5567589 -5646091 
2276.937 -5712839 -5744361 -5720589 -5629835 -5473368 -5267353 -5040345 
2280.312 -4826030 -4654948 -4545938 -4502687 -4512918 -4554332 -4601118 
2283.687 -4632034 -4634754 -4607544 -4556266 -4491964 -4426242 -4370055 
2287.062 -4332527 -4321669 -4344009 -4403413 -4499473 -4625444 -4766486 
2290.438 -4901684 -5007853 -5064318 -5059635 -4994653 -4882911 -4748396 
2293.813 -4617970 -4515869 -4456710 -4443460 -4467729 -4514787 -4568791 
2297.188 -4617904 -4657144 -4688317 -4717259 -4750591 -4792737 -4845395 
2300.563 -4907647 -4978636 -5059144 -5152210 -5262508 -5394541 -5549597 
2303.938 -5726049 -5918643 -6120952 -6327837 -6537429 -6751586 -6974344 
2307.314 -7209534 -7458016 -7715892 -7976056 -8230440 -8474634 -8710604 
2310.689 -8947972 -9201658 -9486901 -9812484 -10176599 -10565698 -10957809 
2314.064 -11330361 -11668725 -11972724 -12257668 -12550826 -12881358 
2316.957 -13271385 -13727617 -14239488 -14782783 -15328725 -15852449 
2319.850 -16339360 -16787026 -17199870 -17584256 -17942364 -18270566 
2322.743 -18561282 -18808748 -19013104 -19183442 -19335490 -19488976 
2325.636 -19662390 -19870456 -20122400 -20422090 -20767566 -21151460 
2328.530 -21558760 -21966496 -22345022 -22662524 -22893112 -23025362 
2331.423 -23068314 -23051914 -23019078 -23014112 -23068470 -23192562 
2334.316 -23374112 -23585996 -23797526 -23987476 -24149512 -24292126 
2337.209 -24431340 -24580688 -24744444 -24915772 -25080276 -25223086 
2340.102 -25335246 -25415474 -25467472 -25494532 -25491938 -25442130 
2342.995 -25313212 -25060636 -24633224 -23982552 -23076484 -21914014 
2345.888 -20538248 -19041106 -17556446 -16240777 -15247603 -14701655 
2348.781 -14679361 -15197119 -16209304 -17615152 -19275686 -21039570 
2351.674 -22772992 -24383604 -25830068 -27112970 -28253304 -29271664 
2354.567 -30176350 -30965908 -31640064 -32211014 -32705288 -33154856 
2357.460 -33582188 -33987372 -34345588 -34618404 -34771292 -34791844 
2360.353 -34697608 -34529420 -34335332 -34152676 -33995340 -33854284 
2363.246 -33705272 -33522290 -33287794 -32995868 -32648526 -32249470 
2366.139 -31798992 -31294528 -30734194 -30121236 -29465336 -28778956 
2369.032 -28071640 -27345252 -26592308 -25800750 -24960102 -24067796 
2371.926 -23130772 -22162980 -21179896 -20193190 -19208200 -18225926 
2374.819 -17245536 -16268129 -15296803 -14336474 -13390725 -12462165 
2377.712 -11553169 -10670363 -9826024 -9039041 -8329753 -7714004 -7196205 
2381.087 -6766006 -6400651 -6072434 -5757375 -5443789 -5134823 -4845494 
2384.462 -4595021 -4397575 -4257135 -4165419 -4105785 -4059831 -4012625 
2387.837 -3957796 -3895770 -3832125 -3773430 -3725109 -3690056 -3669357 
2391.213 -3662852 -3669588 -3687658 -3714235 -3745148 -3776847 -3806474 
2394.588 -3832815 -3855640 -3874424 -3886312 -3886838 -3870976 -3836953 
2397.963 -3788343 -3735851 -3693965 -3676421 -3690713 -3734209 -3794978 
2401.338 -3855935 -3901516 -3923222 -3921711 -3905556 -3886312 -3874096 
2404.714 -3874983 -3891238 -3922795 -3970405 -4033964 -4111200 -4193247 
2408.089 -4264878 -4306086 -4299327 -4237382 -4128792 -3997589 -3876099 
2411.464 -3793631 -3765810 -3788803 -3841518 -3894883 -3924633 -3919774 
2414.839 -3886871 -3845229 -3816787 -3816885 -3847626 -3898955 -3953693 
2418.215 -3995455 -4015251 -4012921 -3995192 -3971324 -3948800 -3931463 
2421.590 -3920956 -3917837 -3923255 -3938293 -3962820 -3992763 -4021259 
2424.965 -4041087 -4048178 -4045355 -4043155 -4055859 -4096430 -4168799 
2428.340 -4265600 -4368054 -4451659 -4494686 -4485274 -4425356 -4329968 
2431.716 -4221501 -4123147 -4051854 -4015284 -4010819 -4029499 -4059404 
2435.091 -4090292 -4115270 -4132534 -4143397 -4151208 -4159479 -4170440 
2438.466 -4184846 -4202075 -4220976 -4240893 -4261499 -4283317 -4305692 
2441.841 -4326590 -4341319 -4343812 -4328460 -4293028 -4240893 -4181827 
2445.217 -4129318 -4096791 -4091966 -4114089 -4152029 -4188883 -4207161 
2448.592 -4194855 -4150289 -4081823 -4004779 -3934648 -3882175 -3849236 
2451.967 -3829924 -3813798 -3790806 -3754904 -3705497 -3646424 -3582808 
2455.342 -3518164 -3453510 -3388716 -3324010 -3263668 -3215521 -3190261 
2458.718 -3196674 -3238707 -3311877 -3404135 -3498739 -3580343 -3639590 
2462.093 -3676553 -3700897 -3727113 -3769522 -3835606 -3922795 -4018928 
2465.468 -4105818 -4165812 -4187307 -4168339 -4117207 -4048572 -3979138 
2468.843 -3921941 -3883554 -3864769 -3862504 -3873439 -3895901 -3929887 
2472.219 -3974312 -4025133 -4072239 -4100894 -4095806 -4046241 -3951164 
2475.594 -3821878 -3679904 -3550931 -3457258 -3411498 -3412518 -3448317 
2478.969 -3499923 -3548926 -3583268 -3599041 -3599502 -3591681 -3581231 
2482.344 -3570222 -3557307 -3539889 -3517704 -3495091 -3479610 -3478919 
2485.719 -3496504 -3527958 -3560133 -3575118 -3555959 -3495420 -3398381 
2489.095 -3283663 -3177499 -3105754 -3083843 -3112103 -3175097 -3246863 
2492.470 -3301288 -3321281 -3303491 -3260182 -3211376 -3177959 -3171808 
2495.845 -3192037 -3225354 -3252125 -3253539 -3219533 -3151184 -3060912 
2499.220 -2966771 -2886697 -2833010 -2809144 -2810954 -2828599 -2851016 
2502.596 -2869943 -2881661 -2888573 -2897197 -2916089 -2952324 -3008727 
2505.971 -3081540 -3160756 -3232425 -3282742 -3302538 -3290502 -3253506 
2509.346 -3204634 -3157927 -3123584 -3105063 -3099668 -3100951 -3104471 
2512.721 -3110360 -3124341 -3154934 -3208745 -3285142 -3375532 -3464654 
2516.097 -3536273 -3577780 -3584977 -3562072 -3518164 -3463963 -3408047 
2519.472 -3354687 -3305958 -3263372 -3229367 -3207199 -3199635 -3206081 
2522.847 -3223151 -3244660 -3265641 -3284090 -3301453 -3321018 -3343475 
2526.222 -3364847 -3376387 -3368069 -3334334 -3278171 -3213120 -3158124 
2529.598 -3130460 -3138223 -3177038 -3232162 -3286227 -3327660 -3356068 
2532.973 -3381187 -3416200 -3468335 -3532888 -3592929 -3626611 -3618494 
2536.348 -3568480 -3493711 -3423761 -3387499 -3401669 -3463635 -3553593 
2539.723 -3643697 -3711114 -3746363 -3756087 -3756284 -3763313 -3784467 
2543.099 -3814225 -3838529 -3842799 -3820268 -3776814 -3728624 -3695871 
2546.474 -3693506 -3725930 -3785748 -3857741 -3924896 -3974804 -4001496 
2549.849 -4007340 -3998574 -3984522 -3974607 -3978087 -4001791 -4049852 
2553.224 -4120554 -4205881 -4291847 -4361723 -4400396 -4400396 -4362740 
2556.600 -4297162 -4217858 -4138704 -4069777 -4016105 -3979335 -3960752 
2559.975 -3961933 -3985015 -4028580 -4085828 -4143857 -4185732 -4195413 
2563.350 -4163318 -4088946 -3980812 -3852159 -3716765 -3585536 -3465936 
2566.725 -3364386 -3288431 -3247093 -3248409 -3294317 -3377209 -3479347 
2570.101 -3577353 -3649710 -3684668 -3684274 -3662031 -3636829 -3623851 
2573.476 -3628516 -3645602 -3663838 -3672971 -3668865 -3655098 -3639294 
2576.851 -3626972 -3616950 -3600685 -3566640 -3507647 -3425240 -3331079 
2580.226 -3241798 -3172170 -3127170 -3101477 -3081738 -3054430 -3012840 
2583.602 -2960058 -2906709 -2864348 -2839034 -2827612 -2818987 -2800782 
2586.977 -2765259 -2714487 -2658474 -2610489 -2580287 -2569582 -2571393 
2590.352 -2574490 -2568198 -2548237 -2516416 -2478695 -2440015 -2400936 
2593.727 -2356812 -2301049 -2229061 -2142785 -2050720 -1966024 -1900941 
2597.103 -1862837 -1851487 -1859900 -1877287 -1893716 -1902492 -1901403 
2600.478 -1891308 -1873757 -1848716 -1812785 -1759823 -1682068 -1573399 
2603.853 -1431711 -1261765 -1076250 -894360 -738360 -627535 -572940 -572642 
2607.710 -612382 -670082 -723376 -756751 -766310 -758769 -746001 -737897 
2611.568 -736408 -734854 -721986 -688906 -635079 -569631 -507217 -460120 
2615.425 -431356 -411958 -384946 -333597 -250652 -142982 -29289 68493 135439 
2619.765 170806 187778 207534 248112 316379 405318 498787 580631 643674 
2624.104 693352 745326 817689 922502 1060489 1222011 1391570 1555276 1704109 
2628.444 1835323 1947872 2039975 2106893 2144053 2150546 2134030 2110023 
2632.302 2098370 2115850 2170026 2257680 2368239 2491223 2623109 2770207 
2636.159 2945342 3159263 3411992 3688494 3960791 4196590 4370361 4472119 
2640.016 4508745 4499939 4468838 4433388 4402225 4375616 4350380 4325414 
2643.874 4304264 4293857 4299512 4321700 4354397 4387196 4410693 4420668 
2647.731 4420568 4418660 4424116 4441689 4469909 4502584 4532248 4554949 
2651.589 4572126 4588735 4611238 4642517 4680965 4721293 4758542 4791071 
2655.446 4822061 4857945 4904388 4962834 5028260 5090981 5140835 5171548 
2659.303 5183317 5183150 5181406 5188246 5210144 5249816 5306866 5380060 
2663.161 5468566 5570682 5681719 5791743 5885170 5943983 5951407 5898201 
2667.018 5785531 5624653 5433571 5231405 5033355 4847056 4673295 4508142 
2670.876 4346230 4183108 4016903 3847686 3677299 3508716 3346208 3195410 
2674.733 3063184 2956418 2879829 2834169 2815660 2816193 2826499 2837171 
2678.591 2841707 2835804 2817394 2785013 2737129 2672847 2592675 2499988 
2682.448 2400690 2302480 2212219 2133497 2066175 2005987 1947139 1884472 
2686.305 1815126 1739503 1659570 1578454 1498983 1422983 1352149 1288039 
2690.163 1231946 1183834 1141807 1100648 1053547 993798 918086 827780 730026 
2694.502 635644 555615 497792 464290 451420 451918 456926 458983 454107 
2698.842 441105 421702 398918 376400 357763 345559 341580 345460 355076 
2703.182 367114 378356 387144 394673 404489 420939 447075 482766 524530 
2707.521 567360 607672 645234 684757 733577 797970 879970 974803 1072546 
2711.861 1161342 1232411 1283353 1318780 1347894 1380302 1421753 1472983 
2715.718 1530105 1587566 1641477 1691502 1739570 1788176 1837785 1885770 
2719.576 1928002 1960319 1981855 1995302 2006287 2021067 2044003 2076363 
2723.433 2116849 2163765 2216249 2275400 2342854 2419148 2501754 2585042 
2727.291 2662312 2728093 2780344 2821663 2857082 2891337 2926895 2962590 
2731.148 2994951 3021242 3041195 3057945 3076999 3102527 3135066 3171011 
2735.005 3202654 3222715 3226621 3214704 3191672 3164503 3139438 3120081 
2738.863 3107400 3100325 3098323 3101460 3110737 3126522 3147615 3171011 
2742.720 3193241 3211967 3227222 3241275 3256398 3273190 3288747 3297428 
2746.578 3292954 3271921 3236168 3192106 3148783 3113373 3088979 3074029 
2750.435 3064018 3055676 3049837 3051472 3067989 3104129 3159129 3225185 
2754.292 3290550 3344539 3382238 3407384 3430527 3464827 3519739 3597744 
2758.150 3692938 3794772 3892383 3978982 4053290 4118177 4177588 4233795 
2762.007 4285960 4331204 4367282 4394259 4415379 4436367 4462980 4499571 
2765.865 4548085 4609062 4682339 4767822 4864144 4968029 5072140 5165714 
2769.722 5237173 5276982 5282147 5256859 5211955 5160952 5116091 5084980 
2773.580 5070330 5071369 5086723 5116058 5160550 5221478 5297575 5383985 
2777.437 5473029 5556654 5628782 5687963 5737080 5781435 5825827 5873448 
2781.294 5925105 5980800 6041844 6111599 6193801 6291214 6401729 6518326 
2785.152 6629975 6726476 6801121 6854673 6894496 6931662 6976408 7034561 
2789.009 7106329 7187742 7273619 7360591 7448693 7539948 7636989 7740258 
2792.867 7847768 7955777 8061012 8161748 8258151 8350488 8437406 8513900 
2796.724 8572834 8607272 8614572 8598755 8570908 8546644 8541575 8566041 
2800.582 8622177 8703166 8796612 8888184 8965738 9022873 9059512 9080726 
2804.439 9095511 9113478 9143323 9190734 9258255 9344745 9446695 9559641 
2808.296 9679461 9804363 9934964 10073029 10220977 10380275 10551480 
2811.672 10734401 10929155 11136236 11355148 11582610 11809750 12021917 
2815.047 12201437 12332658 12409159 12438686 12443698 12456315 12508999 
2818.422 12624246 12806950 13043096 13304720 13559493 13781238 13956390 
2821.797 14085814 14180769 14257117 14329095 14406257 14494292 14596669 
2825.173 14717098 14859162 15025693 15215553 15424139 15642235 15860476 
2828.548 16070575 16267290 16447509 16608626 16746936 16858180 16939618 
2831.923 16993744 17030648 17066694 17120596 17205840 17326306 17473918 
2835.298 17632378 17783994 17917742 18033570 18142138 18259614 18400286 
2838.674 18571326 18770666 18991940 19229082 19482194 19759792 20076088 
2842.049 20446268 20881114 21384296 21953474 22583812 23272254 24019144 
2845.424 24827768 25700606 26636852 27628472 28662284 29721092 30787718 
2848.799 31847272 32887612 33899928 34877268 35814564 36710156 37565536 
2852.175 38386808 39184940 39974148 40770916 41593680 42462396 43398468 
2855.550 44423500 45556008 46807448 48178296 49657264 51223964 52854828 
2858.925 54530380 56239952 57982404 59761156 61577728 63426160 65291740 
2862.300 67154688 68997744 70812528 72601800 74375776 76145472 77914872 
2865.676 79678448 81424000 83139312 84820104 86471472 88104192 89725144 
2869.051 91328568 92892800 94385592 95778304 97059184 98242920 99368136 
2872.426 100485608 101641304 102864328 104163944 105539960 106998520 
2875.319 108567728 110302664 112279128 114576768 117263104 120381528 
2878.212 123951408 127973752 132435472 137303328 142503984 147894624 
2881.105 153239072 158210320 162436544 165587856 167483536 168169504 
2883.998 167925264 167191024 166442880 166066896 166273216 167066736 
2886.891 168272352 169601680 170740896 171433408 171532608 171010448 
2889.784 169929072 168395408 166524496 164420224 162174336 159870944 
2892.677 157589760 155401008 153357120 151487840 149800144 148287072 
2895.571 146938144 145746880 144712992 143836320 143109344 142510784 
2898.464 142006432 141554800 141118032 140668928 140195488 139696592 
2901.357 139176816 138638976 138081568 137499504 136887296 136241808 
2904.250 135561552 134844016 134083288 133269024 132390352 131440832 
2907.143 130423384 129350928 128242496 127116728 125986728 124858160 
2910.036 123734112 122620912 121534928 120501896 119551736 118707968 
2912.929 117978216 117348960 116787824 116251000 115695248 115086432 
2915.822 114405848 113649792 112826904 111953560 111051840 110148624 
2918.715 109275352 108465720 107752792 107163280 106715728 106419632 
2921.608 106279144 106296872 106476864 106824536 107343424 108030304 
2924.501 108872456 109849016 110936328 112114984 113376248 114721912 
2927.394 116158032 117682200 119269032 120860896 122367648 123678032 
2930.287 124681688 125294920 125482696 125268040 124728408 123981152 
2933.180 123164568 122421368 121883288 121658128 121816264 122379240 
2936.073 123311728 124521752 125873240 127210152 128392592 129332152 
2938.967 130018536 130522848 130978512 131546376 132378264 133589432 
2941.860 135248288 137380336 139982544 143037792 146523104 150404800 
2944.753 154624384 159083712 163642032 168132512 172399312 176341696 
2947.646 179944496 183282544 186492272 189729024 193122544 196748416 
2950.539 200623728 204720368 208989632 213381536 217853296 222366112 
2953.432 226879008 231346208 235725248 239988992 244135504 248186848 
2956.325 252178128 256141936 260100720 264067824 268060096 272106784 
2959.218 276251008 280537024 284992416 289618400 294400672 299336544 
2962.111 304468704 309894624 315737216 322076800 328871776 335912992 
2965.004 342859904 349379936 355357248 361058240 367148576 374531136 
2967.897 384070688 396272704 410951936 426944832 442071744 453653376 
2970.790 459628896 459622848 455070432 448332672 441631136 436468064 
2973.683 433580544 433163488 435141376 439379712 445797920 454384224 
2976.576 465144640 478038208 492942176 509644672 527811040 546792704 
2979.469 565190272 580269696 587815552 583415360 565259712 536073312 
2982.363 501721312 467908512 438157408 413767200 394626624 379956992 
2985.256 368760576 360050784 352987328 346960384 341624544 336851616 
2988.149 332627040 328930752 325659136 322610816 319536928 316223136 
2991.042 312563136 308582304 304403552 300177280 296016160 291958432 
2993.935 287968896 283966976 279860832 275571808 271040672 266219056 
2996.828 261059584 255515968 249553712 243166096 236384384 229272096 
2999.721 221907840 214362096 206682096 198887520 190978528 182950272 
3002.614 174808656 166579120 158310304 150067408 141923264 133944840 
3005.507 126182376 118661680 111384608 104337248 97502360 90873352 84461272 
3008.882 78293168 72402816 66817844 61550580 56595788 51938092 47561772 
3012.258 43459512 39633088 36087220 32819960 29815626 27045712 24477004 
3015.633 22082866 19851938 17787792 15901512 14198468 12669071 11286892 
3019.008 10016977 8828396 7705753 6652618 5685647 4821458 4064594 3401239 
3022.865 2804121 2242926 1698520 1168983 669160 220231 -163055 -481369 
3026.723 -752021 -1001777 -1255520 -1525988 -1810376 -2092995 -2353780 
3030.098 -2577190 -2757818 -2900225 -3016197 -3117992 -3214666 -3310890 
3033.473 -3407389 -3502815 -3595098 -3681119 -3757499 -3819808 -3865295 
3036.849 -3894259 -3911302 -3924765 -3943218 -3971882 -4010688 -4053660 
3040.224 -4092393 -4120390 -4136538 -4145465 -4154293 -4169258 -4190983 
3043.599 -4215562 -4235512 -4246372 -4248538 -4249030 -4258250 -4284564 
3046.974 -4330133 -4389801 -4452512 -4507311 -4546791 -4570529 -4583021 
3050.350 -4589644 -4593873 -4595414 -4592496 -4584562 -4575447 -4573710 
3053.725 -4588496 -4625018 -4680254 -4742824 -4796603 -4827013 -4827930 
3057.100 -4803452 -4766060 -4730993 -4708574 -4702510 -4709066 -4721717 
3060.475 -4737187 -4757048 -4788247 -4837564 -4907483 -4992393 -5079285 
3063.851 -5152308 -5198343 -5212060 -5196247 -5159872 -5112360 -5061240 
3067.226 -5009131 -4956983 -4906140 -4860861 -4828291 -4815380 -4825112 
3070.601 -4854701 -4894771 -4933594 -4960914 -4971724 -4968023 -4956230 
3073.976 -4943978 -4936869 -4936869 -4942799 -4952594 -4965009 -4980208 
3077.352 -4998813 -5020038 -5041131 -5057637 -5065628 -5063630 -5053085 
3080.727 -5038216 -5022036 -5005364 -4985122 -4956099 -4914396 -4860730 
3084.102 -4801257 -4745348 -4702674 -4677369 -4667273 -4663963 -4657308 
3087.477 -4640688 -4614461 -4585414 -4564365 -4560791 -4578857 -4616691 
3090.853 -4667798 -4724732 -4782446 -4838842 -4894378 -4947516 -4993998 
3094.228 -5026326 -5036709 -5021381 -4983549 -4933888 -4886843 -4855684 
3097.603 -4847394 -4860173 -4885303 -4910563 -4925436 -4923864 -4905583 
3100.978 -4874163 -4834943 -4792343 -4750002 -4711983 -4682811 -4667732 
3104.354 -4670912 -4692480 -4727715 -4766421 -4796636 -4808433 -4797062 
3107.729 -4764586 -4718407 -4667076 -4617642 -4573283 -4534560 -4501769 
3111.104 -4478256 -4470156 -4485274 -4528297 -4597938 -4684646 -4773041 
3114.479 -4846411 -4892085 -4905485 -4891004 -4857781 -4816724 -4775499 
3117.854 -4736925 -4701330 -4667732 -4637475 -4613871 -4600659 -4599414 
3121.230 -4607315 -4617642 -4622068 -4615183 -4597250 -4574759 -4557086 
3124.605 -4552069 -4561414 -4578496 -4591217 -4585414 -4551938 -4490128 
3127.980 -4408858 -4323309 -4250211 -4203256 -4188686 -4206374 -4250572 
3131.355 -4312450 -4382585 -4451791 -4511803 -4554791 -4574463 -4567742 
3134.731 -4535380 -4483766 -4422863 -4364872 -4320357 -4295128 -4289550 
3138.106 -4298573 -4314156 -4327672 -4333151 -4326951 -4308448 -4278363 
3141.481 -4238071 -4189670 -4136243 -4082907 -4036393 -4004024 -3991220 
3144.856 -3999690 -4025363 -4059667 -4090785 -4108377 -4106244 -4084450 
3148.232 -4049196 -4010622 -3978974 -3961179 -3959373 -3970503 -3987937 
3151.607 -4004024 -4011903 -4006880 -3986164 -3948767 -3894785 -3826180 
3154.982 -3746922 -3664101 -3586916 -3525263 -3486578 -3473134 -3479938 
3158.357 -3496176 -3507877 -3502946 -3475337 -3426752 -3365406 -3302176 
3161.733 -3244758 -3194109 -3143980 -3083679 -3003857 -2901772 -2784189 
3165.108 -2665785 -2563620 -2491148 -2451612 -2437544 -2433195 -2420773 
3168.483 -2387986 -2331997 -2260112 -2185480 -2120759 -2072715 -2038815 
3171.858 -2009331 -1971697 -1916248 -1840665 -1751111 -1659524 -1579176 
3175.234 -1519483 -1482996 -1465263 -1456579 -1446209 -1426196 -1393368 
3178.609 -1350396 -1303589 -1260311 -1227007 -1206323 -1196807 -1193305 
3181.984 -1188447 -1174866 -1147108 -1103253 -1045147 -978471 -910760 
3185.359 -849785 -801302 -768757 -752385 -750136 -759199 -776232 -798822 
3189.217 -824420 -850711 -875148 -895352 -909471 -916579 -917770 -915654 
3193.074 -913901 -915753 -923523 -937211 -954205 -970405 -980554 -979926 
3196.932 -965247 -935955 -894624 -846147 -797863 -757644 -732770 -728966 
3200.789 -749011 -792637 -856696 -935095 -1019265 -1099584 -1166043 -1210388 
3204.646 -1228065 -1220102 -1194395 -1163928 -1144167 -1148496 -1183193 
3208.022 -1244717 -1320436 -1392542 -1444789 -1468764 -1467674 -1455092 
3211.397 -1449313 -1466254 -1512516 -1583666 -1666687 -1745666 -1810211 
3214.772 -1859406 -1900974 -1946497 -2004053 -2072617 -2141169 -2193359 
3218.147 -2214952 -2200974 -2158940 -2106251 -2062295 -2040233 -2041222 
3221.523 -2054809 -2065230 -2059887 -2036737 -2006296 -1987991 -2001646 
3224.898 -2058898 -2157753 -2283712 -2415665 -2534435 -2629888 -2703522 
3228.273 -2764403 -2823694 -2887224 -2951962 -3006819 -3038144 -3035939 
3231.648 -2999547 -2938798 -2872050 -2819908 -2799268 -2817900 -2873597 
3235.024 -2954957 -3045974 -3130822 -3198155 -3243903 -3270870 -3287576 
3238.399 -3303820 -3328416 -3365833 -3416068 -3475731 -3541433 -3612120 
3241.774 -3690680 -3782562 -3892847 -4021292 -4159938 -4292667 -4399084 
3245.149 -4461433 -4471632 -4435556 -4372220 -4308087 -4268422 -4269996 
3248.525 -4316485 -4398723 -4500064 -4603708 -4698675 -4782217 -4858600 
3251.900 -4935035 -5016206 -5101488 -5185214 -5259136 -5315928 -5352716 
3255.275 -5370651 -5374905 -5371273 -5364465 -5357723 -5352716 -5351178 
3258.650 -5355465 -5368982 -5395523 -5437605 -5496075 -5568570 -5650539 
3262.026 -5734846 -5813382 -5877784 -5921356 -5940967 -5938613 -5922173 
3265.401 -5903934 -5897789 -5914099 -5955511 -6015348 -6079393 -6130524 
3268.776 -6155614 -6151040 -6124774 -6093181 -6075341 -6085503 -6128303 
3272.151 -6197851 -6281399 -6365583 -6441656 -6508673 -6571209 -6635107 
3275.527 -6701997 -6766658 -6817480 -6841225 -6827787 -6775074 -6689794 
3278.902 -6585113 -6477043 -6379787 -6303410 -6253802 -6233225 -6241848 
3282.277 -6278198 -6338449 -6415897 -6500448 -6580184 -6643754 -6683562 
3285.652 -6697951 -6690675 -6669467 -6642579 -6616637 -6595360 -6580282 
3289.028 -6571960 -6571242 -6578944 -6594870 -6615919 -6635760 -6646104 
3292.403 -6639414 -6612199 -6567619 -6514908 -6466303 -6432613 -6419717 
3295.778 -6425071 -6439860 -6452070 -6450209 -6428336 -6386448 -6330383 
3299.153 -6268989 -6210982 -6162964 -6128531 -6109060 -6103375 -6109354 
3302.529 -6123075 -6139312 -6151628 -6153719 -6141501 -6115071 -6079295 
3305.904 -6043810 -6019956 -6018061 -6043353 -6094749 -6164336 -6239758 
3309.279 -6306904 -6354057 -6373388 -6362286 -6322644 -6260366 -6183413 
3312.654 -6100924 -6022342 -5956524 -5909818 -5885793 -5883799 -5898671 
3316.030 -5921519 -5941130 -5946882 -5931063 -5890565 -5828192 -5750836 
3319.405 -5668788 -5591828 -5527875 -5481351 -5452526 -5438816 -5435282 
3322.780 -5436328 -5436558 -5431551 -5418364 -5395064 -5361651 -5320085 
3326.155 -5273507 -5225974 -5181710 -5143664 -5113112 -5089371 -5070508 
3329.531 -5053904 -5037986 -5022232 -5007460 -4994850 -4986039 -4982075 
3332.906 -4983025 -4988266 -4996225 -5004218 -5008017 -5002089 -4980306 
3336.281 -4938147 -4874819 -4795096 -4709230 -4631279 -4574627 -4547348 
3339.656 -4549152 -4570726 -4597250 -4614232 -4613150 -4595414 -4571250 
3343.031 -4555315 -4559775 -4588693 -4635377 -4685203 -4722045 -4734204 
3346.407 -4720439 -4688907 -4653571 -4627477 -4617183 -4620199 -4627804 
3349.782 -4629575 -4620199 -4602233 -4585840 -4584857 -4610954 -4668420 
3353.157 -4753574 -4855356 -4960161 -5055770 -5134954 -5195298 -5237989 
3356.532 -5265814 -5280970 -5284963 -5279170 -5266240 -5249250 -5232522 
3359.908 -5219623 -5213141 -5213337 -5219787 -5231147 -5246795 -5266273 
3363.283 -5288466 -5311738 -5332719 -5347382 -5352258 -5346170 -5330526 
3366.658 -5309382 -5288171 -5271870 -5263916 -5266141 -5278417 -5299988 
3370.033 -5329380 -5364727 -5403344 -5441728 -5476182 -5503338 -5521397 
3373.409 -5530623 -5533142 -5531768 -5528856 -5526239 -5524603 -5524309 
3376.784 -5525781 -5528758 -5531866 -5531212 -5521070 -5495682 -5452787 
3380.159 -5396832 -5340279 -5301068 -5295994 -5334715 -5413193 -5513513 
3383.534 -5608379 -5670358 -5681772 -5640628 -5560654 -5465188 -5377098 
3386.910 -5311248 -5270986 -5251247 -5244863 -5248956 -5267091 -5306632 
3390.285 -5372091 -5458873 -5551036 -5624831 -5658094 -5639746 -5575505 
3393.660 -5486619 -5400660 -5340639 -5315699 -5318252 -5328922 -5325387 
3397.035 -5292820 -5229248 -5145956 -5061174 -4992360 -4950071 -4935854 
3400.411 -4944339 -4967433 -4997634 -5029602 -5059144 -5081970 -5092482 
3403.786 -5085638 -5059275 -5016468 -4965173 -4915510 -4875277 -4846804 
3407.161 -4825571 -4803288 -4772517 -4731714 -4686679 -4648851 -4629575 
3410.536 -4635476 -4663897 -4704018 -4740759 -4760423 -4755180 -4724962 
3413.912 -4676156 -4618199 -4560365 -4510262 -4473567 -4455529 -4460613 
3417.287 -4492194 -4550627 -4630919 -4722176 -4809121 -4875376 -4907647 
3420.662 -4899031 -4849884 -4767240 -4662422 -4549053 -4441296 -4353194 
3424.037 -4296440 -4278724 -4300344 -4353621 -4422601 -4487570 -4530461 
3427.413 -4541118 -4520722 -4481732 -4442116 -4419157 -4422437 -4451397 
3430.788 -4495735 -4540462 -4571185 -4578496 -4559906 -4518722 -4461629 
3434.163 -4396854 -4332790 -4277280 -4236726 -4215004 -4211820 -4222682 
3437.538 -4240433 -4258513 -4274360 -4292241 -4321013 -4369399 -4439722 
3440.914 -4524166 -4605971 -4666159 -4694480 -4697233 -4698216 -4730075 
3444.289 -4818493 -4967990 -5152734 -5319823 -5405569 -5358378 -5162066 
3447.664 -4844871 -4469828 -4112119 -3834227 -3669062 -3616227 -3649808 
3451.039 -3732764 -3831961 -3926637 -4009769 -4081660 -4142216 -4187143 
3454.415 -4209097 -4203354 -4173557 -4133223 -4102273 -4099089 -4133781 
3457.790 -4204437 -4299426 -4403118 -4502228 -4588955 -4660258 -4714048 
3461.165 -4746003 -4750133 -4722537 -4667437 -4599053 -4539741 -4511147 
3464.540 -4524986 -4576267 -4643277 -4696282 -4709983 -4675566 -4604692 
3467.916 -4524723 -4466319 -4449561 -4476452 -4531314 -4590135 -4633640 
3471.291 -4656718 -4670781 -4697004 -4754197 -4847591 -4964616 -5078073 
3474.666 -5157482 -5182136 -5150213 -5079841 -5003039 -4954919 -4963568 
3478.041 -5042866 -5190780 -5391170 -5618649 -5842283 -6030315 -6154372 
3481.417 -6195042 -6147479 -6024760 -5857059 -5684976 -5550218 -5483707 
3484.792 -5498070 -5584860 -5717417 -5859903 -5978126 -6049758 -6069624 
3488.167 -6047339 -6001624 -5951164 -5908477 -5877261 -5854836 -5837019 
3491.542 -5823288 -5819202 -5835221 -5882295 -5965577 -6079785 -6208434 
3494.917 -6326399 -6407017 -6430687 -6391803 -6301646 -6186484 -6080602 
3498.293 -6018257 -6025936 -6118632 -6298609 -6555543 -6868100 -7204091 
3501.668 -7522239 -7775098 -7916650 -7912128 -7750460 -7452804 -7071891 
3505.043 -6681246 -6357780 -6161723 -6123075 -6235413 -6458631 -6730936 
3508.418 -6984810 -7165374 -7243196 -7216768 -7105760 -6938965 -6743692 
3511.794 -6541052 -6346351 -6172339 -6031393 -5934985 -5890565 -5898149 
3515.169 -5948615 -6025217 -6108275 -6180310 -6230612 -6257558 -6268434 
3518.544 -6277382 -6303345 -6367216 -6487978 -6677363 -6934073 -7239221 
3521.919 -7556105 -7836476 -8034218 -8123104 -8107331 -8022378 -7920164 
3525.295 -7847897 -7828437 -7851151 -7876988 -7855479 -7748377 -7546792 
3528.670 -7274674 -6975257 -6690577 -6444202 -6235969 -6051555 -5877784 
3532.045 -5717743 -5594772 -5542956 -5588916 -5734322 -5947144 -6167635 
3535.420 -6328261 -6379461 -6309582 -6146303 -5941816 -5747402 -5595132 
3538.796 -5491723 -5427363 -5390908 -5385345 -5431813 -5562061 -5802855 
3542.171 -6160742 -6614451 -7118830 -7617871 -8059621 -8406132 -8633304 
3545.546 -8724179 -8663641 -8441522 -8065930 -7576521 -7047473 -6574375 
3548.921 -6249752 -6136339 -6246845 -6535504 -6906909 -7242023 -7436975 
3552.297 -7438603 -7258707 -6960225 -6624632 -6321110 -6087496 -5929560 
3555.672 -5832933 -5778628 -5755250 -5762541 -5806615 -5892199 -6016067 
3559.047 -6165871 -6324016 -6474464 -6609001 -6730381 -6853912 -7007242 
3562.422 -7230097 -7572191 -8086453 -8816074 -9775941 -10928989 -12166273 
3565.798 -13301593 -14101425 -14356189 -13970954 -13015469 -11694528 
3568.691 -10258608 -8917525 -7798140 -6946563 -6353078 -5981362 -5789156 
3572.066 -5739456 -5800599 -5940051 -6119220 -6294462 -6426508 -6492516 
3575.441 -6494278 -6456967 -6415996 -6400324 -6418607 -6455987 -6483376 
3578.816 -6474105 -6418640 -6330678 -6240672 -6182335 -6180114 -6244755 
3582.192 -6380505 -6597514 -6923312 -7402383 -8083201 -8994320 -10116004 
3585.567 -11355958 -12543358 -13452374 -13866312 -13663567 -12878689 
3588.460 -11693723 -10361600 -9116107 -8117413 -7444564 -7112931 -7096534 
3591.835 -7341790 -7773503 -8298320 -8813022 -9220635 -9450624 -9474063 
3595.210 -9308013 -9006880 -8645291 -8298450 -8025923 -7861630 -7811613 
3598.586 -7856196 -7955171 -8052562 -8087201 -8005496 -7778450 -7413457 
3601.961 -6956149 -6479655 -6069035 -5803313 -5741026 -5909229 -6300014 
3605.336 -6871948 -7557245 -8268445 -8904346 -9358960 -9539836 -9402054 
3608.711 -8978806 -8384844 -7781249 -7322210 -7110779 -7173945 -7452772 
3612.087 -7808815 -8058189 -8039552 -7689558 -7075737 -6364669 -5750901 
3615.462 -5392970 -5374283 -5690176 -6248804 -6889690 -7417301 -7649810 
3618.837 -7465995 -6837148 -5827768 -4566463 -3202003 -1867390 -663896 
3622.212 339458 1100781 1603330 1855654 1887600 1734048 1410318 891989 
3626.070 113266 -1001612 -2470030 -4143003 -5604912 -6234401 -5553228 
3629.445 -3619316 -997844 1648295 3887669 5595754 6907019 8148479 9754547 
3633.302 12128993 15464378 19606966 24062534 28154316 31248072 32951448 
3636.678 33232752 32426980 31116278 29918482 29276426 29343880 30005104 
3640.053 30993564 32037496 32976866 33803856 34617504 35520224 36518448 
3643.428 37487616 38212304 38472276 38129424 37184192 35789092 34208912 
3646.803 32734740 31575378 30786970 30301204 30049274 30091956 30642516 
3650.179 31937700 34040524 36739000 39628876 42294360 44446076 45954756 
3653.554 46821880 47136912 47051904 46768888 46516112 46492992 46803500 
3656.929 47431552 48277416 49213684 50116168 50870640 51376888 51563960 
3660.304 51412168 50964300 50313824 49570124 48821388 48111108 47438056 
3663.680 46772616 46080704 45339024 44534284 43651852 42660876 41510364 
3667.055 40141404 38517460 36668832 34737944 32996132 31784344 31347744 
3670.430 31648468 32337092 32932434 33032242 32392386 30898954 28532724 
3673.805 25400812 21849838 18555282 16320234 15529516 15841059 16542705 
3677.181 17060698 17136106 16759850 16069131 15260612 14509641 13896961 
3680.556 13383614 12850429 12171518 11274514 10167822 8930258 7670172 
3683.931 6465421 5318237 4150658 2838972 1265009 -635344 -2827315 -5148870 
3687.789 -7329997 -9089370 -10266342 -10873896 -11028624 -10841580 -10366517 
3691.164 -9622517 -8651072 -7552946 -6479459 -5584566 -4973755 -4675108 
3694.539 -4640032 -4764422 -4925207 -5024591 -5028128 -4975655 -4960194 
3697.914 -5085605 -5430013 -6022570 -6834343 -7776367 -8706286 -9455324 
3701.290 -9874124 -9884392 -9507972 -8854385 -8080306 -7342768 -6767115 
3704.665 -6432156 -6370220 -6576758 -7025533 -7682787 -8518433 -9507648 
3708.040 -10624290 -11828748 -13056658 -14213610 -15180609 -15830502 
3710.933 -16055327 -15798265 -15078306 -13989692 -12673840 -11279548 
3713.826 -9935692 -8744151 -7784146 -7115017 -6770344 -6745062 -6985169 
3717.201 -7392806 -7853397 -8277677 -8634994 -8957385 -9311257 -9753102 
3720.577 -10288605 -10856510 -11348405 -11658790 -11743099 -11644371 
3723.470 -11473566 -11353183 -11356636 -11468242 -11583594 -11550911 
3726.363 -11248166 -10658982 -9897703 -9165064 -8666857 -8548746 -8872078 
3729.738 -9619697 -10711323 -12019653 -13395448 -14710720 -15908672 
3732.631 -17018238 -18113280 -19235304 -20326738 -21199144 -21565128 
3735.524 -21163800 -19941574 -18137846 -16162731 -14380937 -12988618 
3738.417 -12020169 -11412249 -11068549 -10910184 -10911864 -11113573 
3741.310 -11607983 -12510812 -13918941 -15834304 -18031534 -19934580 
3744.203 -20774548 -20181170 -18562584 -16701808 -15195167 -14314931 
3747.096 -14123236 -14575018 -15546327 -16824130 -18124944 -19177418 
3749.990 -19817880 -20002774 -19736706 -19012120 -17830468 -16275948 
3752.883 -14547942 -12903199 -11557525 -10628849 -10136851 -10028852 
3755.776 -10203948 -10537854 -10911800 -11245712 -11509966 -11702721 
3758.669 -11806886 -11758966 -11462336 -10847430 -9944759 -8909377 -7967338 
3762.044 -7329248 -7127892 -7392773 -8042349 -8885258 -9655637 -10107652 
3765.419 -10137660 -9839240 -9439925 -9179890 -9218688 -9591793 -10199190 
3768.794 -10827490 -11216233 -11167086 -10634443 -9730713 -8653086 -7595992 
3772.170 -6695928 -6019498 -5573935 -5327384 -5232063 -5245911 -5349018 
3775.545 -5550415 -5881216 -6377828 -7055265 -7880241 -8750581 -9495848 
3778.920 -9915354 -9859906 -9316705 -8434600 -7460295 -6637946 -6132942 
3782.295 -6002636 -6197622 -6580478 -6966322 -7184636 -7143635 -6857891 
3785.671 -6421611 -5951850 -5538212 -5221326 -4997208 -4838777 -4719128 
3789.046 -4625805 -4559545 -4522985 -4509442 -4502884 -4490587 -4482650 
3792.421 -4524198 -4689038 -5056425 -5678174 -6545915 -7566525 -8561319 
3795.796 -9313721 -9665099 -9607836 -9297830 -8981274 -8899120 -9225792 
3799.172 -10039116 -11293139 -12777097 -14099564 -14787458 -14533523 
3802.065 -13411190 -11819171 -10224435 -8968388 -8228262 -8053928 -8397227 
3805.440 -9103647 -9894918 -10407668 -10340408 -9630263 -8480971 -7210707 
3808.815 -6082955 -5236712 -4697233 -4413844 -4302706 -4292503 -4362182 
3812.190 -4555447 -4962978 -5682785 -6772138 -8194772 -9766968 -11146708 
3815.566 -11946164 -11967277 -11362672 -10539601 -9923644 -9808369 -10330604 
3818.941 -11487604 -13125267 -14896873 -16268417 -16691254 -15923940 
3821.834 -14214412 -12116138 -10154945 -8652599 -7729726 -7369286 -7458927 
3825.209 -7810442 -8187229 -8365246 -8219873 -7779003 -7199724 -6690153 
3828.584 -6428303 -6512590 -6942388 -7618881 -8374607 -9031123 -9469200 
3831.960 -9674918 -9732042 -9769300 -9900424 -10183979 -10617630 -11158011 
3835.335 -11752130 -12360895 -12966782 -13558594 -14105082 -14536727 
3838.228 -14758827 -14693775 -14321920 -13695127 -12918540 -12117878 
3841.121 -11406439 -10854184 -10467349 -10183590 -9893460 -9483205 -8885063 
3844.496 -8109933 -7248378 -6437477 -5813285 -5468787 -5435282 -5686971 
3847.872 -6163879 -6802866 -7569488 -8477364 -9590465 -11002716 -12800583 
3851.247 -15006165 -17491526 -19870900 -21479046 -21648674 -20254070 
3854.140 -17896006 -15401228 -13286329 -11672499 -10454442 -9468974 -8593253 
3857.515 -7790199 -7107846 -6642743 -6485530 -6674361 -7173196 -7878875 
3860.890 -8656821 -9394046 -10043778 -10629043 -11195405 -11741423 -12169495 
3864.266 -12301377 -11974368 -11177129 -10109821 -9109195 -8507256 -8531690 
3867.641 -9265072 -10615754 -12272163 -13708932 -14375776 -14046893 
3870.534 -12990901 -11746679 -10777135 -10304946 -10315300 -10610031 
3873.427 -10875965 -10798694 -10212363 -9188130 -7980740 -6888157 -6141664 
3876.802 -5872325 -6121181 -6856163 -7976674 -9311030 -10620442 -11631855 
3880.177 -12111949 -11962732 -11279548 -10318342 -9393235 -8773734 -8623982 
3883.553 -8978839 -9726631 -10597970 -11208742 -11211906 -10506193 -9309862 
3886.928 -8013628 -6971735 -6396569 -6358955 -6820187 -7652870 -8652728 
3890.303 -9567971 -10162940 -10298345 -9970861 -9287743 -8401549 -7459644 
3893.678 -6583121 -5868631 -5392970 -5214058 -5365840 -5851567 -6638697 
3897.054 -7658111 -8808021 -9966197 -11009404 -11841838 -12420920 -12770662 
3900.429 -12969548 -13118355 -13299536 -13544302 -13815346 -14010546 
3903.322 -13991488 -13637141 -12902298 -11845482 -10603887 -9336066 -8169443 
3906.697 -7177759 -6384358 -5779544 -5339101 -5038052 -4856306 -4776417 
3910.073 -4777596 -4831207 -4904011 -4969366 -5022396 -5090092 -5225810 
3913.448 -5490872 -5927925 -6538474 -7270731 -8024363 -8676633 -9124607 
3916.823 -9326856 -9315084 -9167595 -8961865 -8738468 -8495300 -8209762 
3920.198 -7874353 -7523053 -7232312 -7093633 -7173848 -7480293 -7944304 
3923.573 -8429335 -8771168 -8840587 -8601601 -8126844 -7561868 -7060677 
3926.949 -6734818 -6629625 -6729239 -6978452 -7311719 -7676765 -8044236 
3930.324 -8398722 -8722458 -8979001 -9113608 -9072660 -8831106 -8413021 
3933.699 -7888473 -7350554 -6884439 -6543729 -6340735 -6250732 -6227019 
3937.074 -6221989 -6208205 -6189130 -6197459 -6280680 -6481841 -6820578 
3940.450 -7281060 -7807122 -8310250 -8688780 -8857664 -8778604 -8476811 
3943.825 -8034933 -7567045 -7184636 -6968866 -6953997 -7123785 -7418115 
3947.200 -7750720 -8033340 -8201536 -8229725 -8132145 -7947493 -7721426 
3950.575 -7489542 -7272523 -7077269 -6904887 -6757458 -6641503 -6566705 
3953.951 -6541248 -6566575 -6634030 -6726303 -6821166 -6898658 -6946367 
3957.326 -6962606 -6956540 -6944052 -6943041 -6967203 -7021946 -7101946 
3960.701 -7191577 -7268841 -7311263 -7302141 -7235962 -7119873 -6971181 
3964.076 -6812196 -6664311 -6543729 -6460427 -6418738 -6419097 -6458958 
3967.452 -6532958 -6631877 -6742289 -6847357 -6930780 -6980995 -6996548 
3970.827 -6985984 -6965931 -6954160 -6962931 -6993679 -7036748 -7075052 
3974.202 -7091808 -7075998 -7026739 -6952106 -6864741 -6777717 -6700692 
3977.577 -6639871 -6598134 -6577149 -6577378 -6596992 -6630310 -6667248 
3980.953 -6695765 -6704574 -6688261 -6648910 -6595262 -6538670 -6488109 
3984.328 -6446847 -6412633 -6380962 -6349878 -6322873 -6309157 -6318954 
3987.703 -6358564 -6425594 -6508314 -6589420 -6652630 -6688587 -6698506 
3991.078 -6691850 -6681083 -6675275 -6675927 -6676939 -6668194 -6640654 
3994.454 -6590889 -6522252 -6443745 -6366041 -6298250 -6245571 -6209055 
3997.829 -6186680 -6174332 -6166623 -6157835 -6142285 -6116639 
##END=
