Wavenumber,Intensity,Wavenumber,Intensity
cm⁻¹,a.u.,,
,As Deposited,,UV
500.4454,0.08243,400.163,0.01422
500.9275,0.08278,400.64512,0.01662
501.4096,0.08373,401.12725,0.04617
501.8917,0.08534,401.60937,0.09469
502.3739,0.0874,402.0915,0.15388
502.856,0.08964,402.57362,0.21843
503.3381,0.09177,403.05575,0.28592
503.8203,0.0936,403.53787,0.35511
504.3024,0.09506,404.02,0.42272
504.7845,0.09613,404.50212,0.48182
505.2666,0.09679,404.98425,0.52229
505.7487,0.09706,405.46637,0.53472
506.2309,0.097,405.9485,0.51507
506.713,0.09682,406.43062,0.46879
507.1951,0.09689,406.91275,0.40981
507.6772,0.09764,407.395,0.35561
508.1594,0.09942,407.87712,0.32015
508.6415,0.10234,408.35925,0.30914
509.1236,0.10615,408.84137,0.3189
509.6057,0.11034,409.3235,0.33867
510.0879,0.11424,409.80562,0.35535
510.57,0.11733,410.28775,0.35941
511.0521,0.11937,410.77,0.3487
511.5342,0.12054,411.25212,0.32836
512.0164,0.12126,411.73425,0.3071
512.4985,0.12204,412.21637,0.29247
512.9806,0.12321,412.6985,0.28766
513.4627,0.12487,413.18062,0.29082
513.9448,0.12683,413.66275,0.29711
514.427,0.12885,414.145,0.30141
514.9091,0.13071,414.62712,0.30138
515.3912,0.13237,415.10925,0.29834
515.8734,0.13393,415.59137,0.29575
516.3555,0.13555,416.0735,0.29711
516.8376,0.13729,416.55562,0.30423
517.3197,0.1391,417.03775,0.31684
517.8019,0.14085,417.52,0.33316
518.284,0.14245,418.00212,0.3509
518.7661,0.14398,418.48425,0.36829
519.2482,0.14566,418.96637,0.38446
519.7303,0.1478,419.4485,0.39826
520.2125,0.15064,419.93062,0.40745
520.6946,0.15423,420.41275,0.40824
521.1767,0.15839,420.894,0.39682
521.6588,0.16276,421.37612,0.37126
522.141,0.16699,421.85825,0.333
522.6231,0.17081,422.34037,0.28725
523.1052,0.17418,422.8225,0.24134
523.5873,0.17713,423.30462,0.20245
524.0695,0.17975,423.78675,0.17566
524.5516,0.18199,424.269,0.16272
525.0337,0.18375,424.75112,0.16243
525.5159,0.18483,425.23325,0.17168
525.998,0.18521,425.71537,0.18683
526.4801,0.18507,426.1975,0.20495
526.9622,0.18483,426.67962,0.22426
527.4443,0.18501,427.16175,0.24354
527.9265,0.18598,427.644,0.26145
528.4086,0.18784,428.12612,0.27599
528.8907,0.19036,428.60825,0.28468
529.3728,0.19311,429.09037,0.28573
529.855,0.19562,429.5725,0.27866
530.3371,0.19761,430.05462,0.2653
530.8192,0.19908,430.53675,0.24903
531.3013,0.20027,431.019,0.23378
531.7834,0.20147,431.50112,0.22258
532.2656,0.20288,431.98325,0.21697
532.7477,0.20449,432.46537,0.21697
533.2299,0.20612,432.9475,0.22142
533.712,0.20755,433.42962,0.22899
534.1941,0.20869,433.91175,0.23853
534.6762,0.20967,434.394,0.24916
535.1583,0.21082,434.87612,0.25991
535.6404,0.21252,435.35825,0.26955
536.1226,0.21501,435.84037,0.27647
536.6047,0.2183,436.3225,0.27973
537.0868,0.22218,436.80462,0.27954
537.569,0.2263,437.28675,0.27789
538.0511,0.23031,437.769,0.27809
538.5332,0.23404,438.25112,0.2835
539.0153,0.23746,438.73325,0.29599
539.4974,0.24065,439.21537,0.31509
539.9796,0.24366,439.6975,0.33769
540.4617,0.2465,440.17962,0.35897
540.9438,0.24904,440.66175,0.37382
541.426,0.25119,441.143,0.37866
541.9081,0.25291,441.62512,0.37267
542.3902,0.25425,442.10725,0.35791
542.8723,0.25533,442.58937,0.33817
543.3544,0.25625,443.0715,0.31756
543.8365,0.25701,443.55362,0.29909
544.3187,0.25752,444.03575,0.28455
544.8008,0.25767,444.518,0.27451
545.283,0.25745,445.00012,0.2688
545.7651,0.25704,445.48225,0.2669
546.2472,0.25676,445.96437,0.26797
546.7293,0.25701,446.4465,0.27079
547.2114,0.25802,446.92862,0.27378
547.6936,0.25976,447.41075,0.27515
548.1757,0.26193,447.893,0.27361
548.6578,0.26405,448.37512,0.26871
549.14,0.26569,448.85725,0.26129
549.6221,0.26668,449.33937,0.25306
550.1042,0.26719,449.8215,0.2458
550.5863,0.26763,450.30362,0.24037
551.0684,0.26852,450.78575,0.23628
551.5505,0.27019,451.268,0.23193
552.0327,0.27271,451.75012,0.22556
552.5148,0.27582,452.23225,0.21621
552.9969,0.27909,452.71437,0.2044
553.4791,0.28209,453.1965,0.19205
553.9612,0.28452,453.67862,0.18151
554.4433,0.28629,454.16075,0.17431
554.9254,0.28745,454.643,0.17049
555.4076,0.28809,455.12512,0.16853
555.8896,0.28831,455.60725,0.16627
556.3718,0.28816,456.08937,0.16199
556.8539,0.28775,456.5715,0.15549
557.3361,0.28724,457.05362,0.1485
557.8182,0.28688,457.53575,0.14391
558.3003,0.28696,458.017,0.1444
558.7825,0.28762,458.49912,0.1511
559.2645,0.28886,458.98125,0.16287
559.7467,0.29043,459.46337,0.17685
560.2288,0.29197,459.9455,0.18944
560.7109,0.29315,460.42762,0.19755
561.1931,0.29378,460.90975,0.19966
561.6752,0.2939,461.392,0.19586
562.1573,0.29372,461.87412,0.18754
562.6394,0.29348,462.35625,0.17658
563.1216,0.29333,462.83837,0.1647
563.6037,0.29323,463.3205,0.15346
564.0858,0.29305,463.80262,0.14358
564.5679,0.29263,464.28475,0.13572
565.05,0.29193,464.767,0.13031
565.5322,0.29108,465.24912,0.12754
566.0143,0.2903,465.73125,0.12719
566.4965,0.28984,466.21337,0.12862
566.9785,0.28979,466.6955,0.13082
567.4607,0.29007,467.17762,0.13279
567.9428,0.29047,467.65975,0.13393
568.4249,0.29079,468.142,0.13409
568.907,0.29095,468.62412,0.13344
569.3892,0.29105,469.10625,0.13201
569.8713,0.29134,469.58837,0.12923
570.3534,0.2921,470.0705,0.12386
570.8356,0.29349,470.55262,0.11429
571.3177,0.29551,471.03475,0.09943
571.7998,0.298,471.517,0.07952
572.2819,0.30074,471.99912,0.05666
572.764,0.30354,472.48125,0.0344
573.2462,0.30629,472.96337,0.0168
573.7283,0.30897,473.4455,0.00699
574.2104,0.31151,473.92762,0.00615
574.6925,0.3138,474.40975,0.01332
575.1747,0.31563,474.892,0.02603
575.6568,0.31676,475.37412,0.04143
576.1389,0.31709,475.85625,0.05713
576.621,0.3167,476.33837,0.07188
577.1031,0.31589,476.8205,0.08553
577.5853,0.31508,477.30262,0.09846
578.0674,0.31466,477.78475,0.11106
578.5496,0.31481,478.266,0.12328
579.0317,0.31556,478.74812,0.13473
579.5138,0.31668,479.23025,0.14495
579.9959,0.31794,479.71237,0.15371
580.478,0.31909,480.1945,0.16115
580.9601,0.32004,480.67662,0.16758
581.4423,0.32076,481.15875,0.17307
581.9244,0.32126,481.641,0.1771
582.4066,0.32148,482.12312,0.17878
582.8887,0.32131,482.60525,0.17731
583.3708,0.32065,483.08737,0.17266
583.8529,0.31947,483.5695,0.16599
584.335,0.31792,484.05162,0.15949
584.8171,0.3163,484.53375,0.15559
585.2993,0.31495,485.016,0.15585
585.7814,0.31414,485.49812,0.16015
586.2635,0.3139,485.98025,0.16654
586.7457,0.31408,486.46237,0.1719
587.2278,0.31435,486.9445,0.17327
587.7099,0.31441,487.42662,0.16906
588.192,0.31406,487.90875,0.15988
588.6741,0.31329,488.391,0.1483
589.1562,0.31222,488.87312,0.13797
589.6384,0.31102,489.35525,0.13231
590.1205,0.30972,489.83737,0.13345
590.6027,0.30827,490.3195,0.14169
591.0848,0.3065,490.80162,0.15571
591.5669,0.3043,491.28375,0.17303
592.049,0.30168,491.766,0.19098
592.5311,0.2988,492.24812,0.20727
593.0133,0.29589,492.73025,0.22033
593.4954,0.29316,493.21237,0.22929
593.9775,0.29066,493.6945,0.23377
594.4597,0.28827,494.17662,0.23395
594.9418,0.28577,494.65875,0.23004
595.4239,0.28294,495.14,0.22286
595.906,0.27967,495.62212,0.21359
596.3882,0.27594,496.10425,0.20359
596.8702,0.27179,496.58637,0.19408
597.3524,0.26719,497.0685,0.18594
597.8345,0.26197,497.55062,0.17955
598.3167,0.25583,498.03275,0.17501
598.7988,0.24853,498.515,0.17243
599.2809,0.23999,498.99712,0.17203
599.763,0.23047,499.47925,0.17418
600.2451,0.22055,499.96137,0.17913
600.7273,0.2109,500.4435,0.18664
601.2094,0.20212,500.92562,0.19576
601.6915,0.1945,501.40775,0.20485
602.1736,0.18797,501.89,0.21202
602.6558,0.18218,502.37212,0.21568
603.1379,0.17677,502.85425,0.21512
603.62,0.17151,503.33637,0.21066
604.1022,0.16644,503.8185,0.20346
604.5842,0.16177,504.30062,0.19491
605.0664,0.15763,504.78275,0.18613
605.5485,0.15394,505.265,0.17774
606.0306,0.15036,505.74712,0.17002
606.5128,0.14634,506.22925,0.16328
606.9949,0.14146,506.71137,0.15812
607.477,0.13555,507.1935,0.15543
607.9591,0.12886,507.67562,0.15607
608.4413,0.12196,508.15775,0.16028
608.9234,0.11555,508.64,0.16742
609.4055,0.11017,509.12212,0.17587
609.8876,0.10614,509.60425,0.18363
610.3698,0.10349,510.08637,0.18899
610.8519,0.10217,510.5685,0.19126
611.334,0.10215,511.05062,0.19105
611.8162,0.10332,511.53275,0.19005
612.2983,0.10565,512.015,0.19011
612.7804,0.10933,512.49712,0.1925
613.2625,0.11401,512.97925,0.19718
613.7446,0.1191,513.46137,0.20301
614.2267,0.12386,513.9435,0.20821
614.7089,0.12768,514.42562,0.21126
615.191,0.13025,514.90775,0.21174
615.6731,0.13166,515.389,0.21043
616.1553,0.1323,515.87112,0.20904
616.6374,0.13265,516.35325,0.20943
617.1195,0.13305,516.83537,0.21293
617.6016,0.13357,517.3175,0.21984
618.0837,0.13408,517.79962,0.22954
618.5659,0.13444,518.28175,0.24083
619.048,0.13465,518.764,0.25241
619.5302,0.13502,519.24612,0.26327
620.0123,0.13603,519.72825,0.27272
620.4944,0.13822,520.21037,0.28027
620.9765,0.14198,520.6925,0.28548
621.4586,0.14744,521.17462,0.28793
621.9407,0.1545,521.65675,0.28738
622.4229,0.16299,522.139,0.28403
622.905,0.17284,522.62112,0.27872
623.3871,0.18414,523.10325,0.27281
623.8693,0.19709,523.58537,0.26799
624.3514,0.21186,524.0675,0.26584
624.8335,0.22841,524.54962,0.26746
625.3156,0.24647,525.03175,0.2734
625.7977,0.26556,525.514,0.28337
626.2798,0.2852,525.99612,0.2966
626.762,0.30496,526.47825,0.31196
627.2441,0.32455,526.96037,0.32822
627.7263,0.34369,527.4425,0.34416
628.2084,0.36207,527.92462,0.35867
628.6905,0.37927,528.40675,0.37088
629.1726,0.39479,528.889,0.38035
629.6547,0.4082,529.37112,0.38721
630.1368,0.41929,529.85325,0.39224
630.619,0.42816,530.33537,0.39668
631.1011,0.43518,530.8175,0.40179
631.5833,0.44088,531.29962,0.40832
632.0654,0.44579,531.78175,0.41613
632.5475,0.45023,532.263,0.42412
633.0296,0.45432,532.74512,0.43059
633.5117,0.45798,533.22725,0.43401
633.9939,0.46111,533.70937,0.43363
634.476,0.4637,534.1915,0.42991
634.9581,0.46588,534.67362,0.42441
635.4402,0.46787,535.15575,0.41925
635.9224,0.46992,535.638,0.4163
636.4045,0.47212,536.12012,0.41655
636.8866,0.47446,536.60225,0.41988
637.3687,0.4768,537.08437,0.42526
637.8508,0.47903,537.5665,0.43122
638.333,0.48117,538.04862,0.43658
638.8151,0.48336,538.53075,0.4408
639.2972,0.48582,539.013,0.44406
639.7794,0.48869,539.49512,0.4471
640.2615,0.49193,539.97725,0.45074
640.7436,0.49531,540.45937,0.45558
641.2257,0.49848,540.9415,0.46189
641.7079,0.50117,541.42362,0.46948
642.1899,0.50326,541.90575,0.47797
642.6721,0.50488,542.388,0.48683
643.1542,0.50633,542.87012,0.49555
643.6364,0.50787,543.35225,0.50361
644.1185,0.50966,543.83437,0.51055
644.6006,0.5116,544.3165,0.51602
645.0827,0.51352,544.79862,0.5199
645.5648,0.51518,545.28075,0.52234
646.047,0.51652,545.763,0.52379
646.5291,0.51763,546.24512,0.52488
647.0112,0.51873,546.72725,0.5261
647.4933,0.52006,547.20937,0.52779
647.9755,0.52171,547.6915,0.52995
648.4576,0.5236,548.17362,0.53242
648.9397,0.52552,548.65575,0.53514
649.4219,0.52728,549.138,0.53821
649.904,0.52881,549.62012,0.542
650.3861,0.53021,550.10225,0.54694
650.8682,0.53168,550.58437,0.55321
651.3503,0.53341,551.0665,0.56055
651.8325,0.53541,551.54862,0.56819
652.3146,0.53755,552.03075,0.57507
652.7968,0.53954,552.512,0.58031
653.2788,0.54114,552.99412,0.58348
653.761,0.54229,553.47625,0.58494
654.2431,0.5431,553.95837,0.58557
654.7252,0.54386,554.4405,0.5865
655.2073,0.54482,554.92262,0.5886
655.6895,0.54608,555.40475,0.59219
656.1716,0.54757,555.887,0.59704
656.6537,0.54906,556.36912,0.60249
657.1359,0.55035,556.85125,0.60789
657.6179,0.55136,557.33337,0.61277
658.1001,0.55223,557.8155,0.61703
658.5822,0.5532,558.29762,0.62071
659.0643,0.55453,558.77975,0.62386
659.5464,0.55628,559.262,0.62627
660.0286,0.55831,559.74412,0.62763
660.5107,0.56031,560.22625,0.62756
660.9928,0.56199,560.70837,0.62597
661.475,0.56321,561.1905,0.62313
661.9571,0.56405,561.67262,0.61962
662.4392,0.56477,562.15475,0.61611
662.9213,0.56565,562.637,0.61312
663.4034,0.56682,563.11912,0.61081
663.8856,0.56822,563.60125,0.60905
664.3677,0.56957,564.08337,0.60759
664.8499,0.57057,564.5655,0.60631
665.332,0.57095,565.04762,0.60543
665.8141,0.57062,565.52975,0.60544
666.2962,0.56969,566.012,0.60696
666.7783,0.56843,566.49412,0.61052
667.2605,0.56719,566.97625,0.6164
667.7426,0.56633,567.45837,0.6246
668.2247,0.56605,567.9405,0.63492
668.7068,0.56641,568.42262,0.64708
669.189,0.56736,568.90475,0.66079
669.6711,0.56884,569.386,0.67564
670.1532,0.57078,569.86812,0.691
670.6353,0.57314,570.35025,0.70594
671.1174,0.57576,570.83237,0.7193
671.5996,0.57844,571.3145,0.72996
672.0817,0.58087,571.79662,0.73725
672.5638,0.58282,572.27875,0.74121
673.046,0.58414,572.761,0.74273
673.5281,0.5849,573.24312,0.74331
674.0102,0.58524,573.72525,0.74461
674.4923,0.58538,574.20737,0.748
674.9745,0.58543,574.6895,0.75415
675.4565,0.58539,575.17162,0.76308
675.9387,0.58518,575.65375,0.77417
676.4208,0.58474,576.136,0.78651
676.903,0.58411,576.61812,0.79914
677.3851,0.58348,577.10025,0.81121
677.8672,0.58308,577.58237,0.82194
678.3493,0.58314,578.0645,0.83067
678.8314,0.58369,578.54662,0.83683
679.3136,0.58462,579.02875,0.84008
679.7957,0.5857,579.511,0.84052
680.2778,0.58668,579.99312,0.83872
680.7599,0.58746,580.47525,0.83571
681.2421,0.58804,580.95737,0.83264
681.7242,0.58855,581.4395,0.83039
682.2063,0.58911,581.92162,0.82924
682.6885,0.58971,582.40375,0.82884
683.1705,0.59026,582.886,0.8284
683.6527,0.59055,583.36812,0.82719
684.1348,0.59044,583.85025,0.8248
684.6169,0.58988,584.33237,0.82138
685.0991,0.58904,584.8145,0.81747
685.5812,0.58814,585.29662,0.81371
686.0634,0.58743,585.77875,0.81046
686.5454,0.58703,586.26,0.80767
687.0276,0.58693,586.74212,0.80496
687.5096,0.58701,587.22425,0.80194
687.9918,0.58717,587.70637,0.79849
688.4739,0.58736,588.1885,0.79489
688.9561,0.58765,588.67062,0.79168
689.4382,0.58814,589.15275,0.78924
689.9203,0.58884,589.635,0.7875
690.4025,0.58964,590.11712,0.78577
690.8845,0.59032,590.59925,0.78291
691.3667,0.59059,591.08137,0.77778
691.8488,0.59026,591.5635,0.76965
692.3309,0.58931,592.04562,0.75858
692.813,0.58794,592.52775,0.74532
693.2952,0.58643,593.01,0.73092
693.7773,0.58506,593.49212,0.71632
694.2594,0.58395,593.97425,0.70194
694.7416,0.58308,594.45637,0.68763
695.2236,0.58232,594.9385,0.67292
695.7058,0.5816,595.42062,0.6573
696.1879,0.58092,595.90275,0.64057
696.67,0.58042,596.385,0.62285
697.1522,0.5803,596.86712,0.6044
697.6343,0.58065,597.34925,0.58535
698.1165,0.58141,597.83137,0.56551
698.5985,0.58234,598.3135,0.54437
699.0807,0.58308,598.79562,0.52138
699.5628,0.58334,599.27775,0.49624
700.0449,0.58299,599.76,0.46913
700.527,0.58211,600.24212,0.44073
701.0092,0.58095,600.72425,0.412
701.4913,0.57975,601.20637,0.38379
701.9734,0.57868,601.6885,0.35666
702.4556,0.57776,602.17062,0.33079
702.9377,0.5769,602.65275,0.30608
703.4198,0.576,603.135,0.28229
703.9019,0.57503,603.61712,0.25924
704.384,0.57402,604.09925,0.23673
704.8662,0.57306,604.58137,0.21456
705.3483,0.57215,605.0635,0.19235
705.8304,0.5712,605.54562,0.16969
706.3125,0.56999,606.02775,0.14635
706.7947,0.56827,606.509,0.12253
707.2768,0.56592,606.99112,0.09894
707.7589,0.563,607.47325,0.07677
708.241,0.55977,607.95537,0.05723
708.7231,0.55656,608.4375,0.04117
709.2053,0.55364,608.91962,0.02872
709.6874,0.55106,609.40175,0.01932
710.1696,0.54867,609.884,0.01209
710.6517,0.54617,610.36612,0.00636
711.1338,0.54329,610.84825,0.00211
711.6159,0.53991,611.33037,0
712.098,0.53611,611.8125,0.001
712.5802,0.53209,612.29462,0.00582
713.0623,0.52809,612.77675,0.01431
713.5444,0.5242,613.259,0.02532
714.0265,0.52034,613.74112,0.03695
714.5087,0.51633,614.22325,0.0472
714.9908,0.51198,614.70537,0.05452
715.4729,0.5072,615.1875,0.05836
715.955,0.5021,615.66962,0.05904
716.4371,0.49685,616.15175,0.05745
716.9193,0.49166,616.634,0.05444
717.4014,0.48657,617.11612,0.0505
717.8835,0.4815,617.59825,0.04567
718.3657,0.47624,618.08037,0.03991
718.8478,0.47062,618.5625,0.03349
719.3299,0.46464,619.04462,0.02726
719.812,0.45847,619.52675,0.02262
720.2942,0.45243,620.009,0.02119
720.7762,0.44685,620.49112,0.0243
721.2584,0.44189,620.97325,0.0328
721.7405,0.43756,621.45537,0.04699
722.2227,0.43366,621.9375,0.0669
722.7048,0.42994,622.41962,0.09265
723.1869,0.42619,622.90175,0.12465
723.6691,0.42233,623.383,0.16344
724.1511,0.4184,623.86512,0.20931
724.6333,0.41444,624.34725,0.2619
725.1154,0.41049,624.82937,0.32002
725.5975,0.4065,625.3115,0.3818
726.0797,0.40236,625.79362,0.44526
726.5618,0.398,626.27575,0.50876
727.0439,0.39342,626.758,0.57126
727.526,0.38873,627.24012,0.63217
728.0082,0.38408,627.72225,0.69089
728.4902,0.37957,628.20437,0.74633
728.9724,0.37521,628.6865,0.79673
729.4545,0.37091,629.16862,0.83999
729.9366,0.36651,629.65075,0.87433
730.4188,0.36195,630.133,0.89895
730.9009,0.35724,630.61512,0.91456
731.3831,0.35256,631.09725,0.92327
731.8651,0.3481,631.57937,0.92805
732.3473,0.344,632.0615,0.93191
732.8293,0.34027,632.54362,0.93707
733.3115,0.33673,633.02575,0.94453
733.7936,0.33314,633.508,0.95402
734.2758,0.32927,633.99012,0.96445
734.7579,0.325,634.47225,0.97452
735.24,0.3204,634.95437,0.98321
735.7222,0.31563,635.4365,0.99004
736.2042,0.31084,635.91862,0.99498
736.6864,0.30614,636.40075,0.99821
737.1685,0.30154,636.883,0.99988
737.6506,0.29699,637.36512,1
738.1328,0.2925,637.84725,0.99854
738.6149,0.28811,638.32937,0.99562
739.097,0.28396,638.8115,0.99158
739.5791,0.28021,639.29362,0.98699
740.0613,0.27693,639.77575,0.98244
740.5434,0.27408,640.258,0.97833
741.0255,0.27149,640.74012,0.97477
741.5076,0.269,641.22225,0.9716
741.9897,0.2665,641.70437,0.96849
742.4719,0.26401,642.1865,0.96521
742.954,0.26169,642.66862,0.96164
743.4362,0.25968,643.15075,0.95782
743.9182,0.25806,643.632,0.95383
744.4004,0.25673,644.11412,0.94967
744.8825,0.25547,644.59625,0.94523
745.3646,0.25396,645.07837,0.94046
745.8467,0.25197,645.5605,0.93536
746.3289,0.24943,646.04262,0.93021
746.811,0.24645,646.52475,0.9254
747.2931,0.24325,647.007,0.92133
747.7753,0.24001,647.48912,0.91814
748.2574,0.23682,647.97125,0.91563
748.7395,0.23364,648.45337,0.91328
749.2216,0.23036,648.9355,0.91051
749.7037,0.22689,649.41762,0.90691
750.1859,0.22329,649.89975,0.90247
750.668,0.21969,650.382,0.89754
751.1501,0.2163,650.86412,0.89267
751.6322,0.21326,651.34625,0.88827
752.1144,0.21053,651.82837,0.88443
752.5965,0.20792,652.3105,0.88087
753.0786,0.20515,652.79262,0.87711
753.5608,0.20197,653.27475,0.87276
754.0428,0.19827,653.757,0.86771
754.525,0.19415,654.23912,0.86219
755.0071,0.18981,654.72125,0.8566
755.4893,0.18553,655.20337,0.8513
755.9714,0.18147,655.6855,0.84642
756.4535,0.17769,656.16762,0.84181
756.9356,0.17414,656.64975,0.83722
757.4177,0.17077,657.132,0.83252
757.8999,0.16755,657.61412,0.82783
758.382,0.16458,658.09625,0.82352
758.8641,0.16197,658.57837,0.82
759.3463,0.15978,659.0605,0.81745
759.8284,0.15795,659.54262,0.81568
760.3105,0.15627,660.02475,0.81413
760.7926,0.15442,660.506,0.81216
761.2748,0.15237,660.98812,0.80932
761.7568,0.15008,661.47025,0.80563
762.239,0.14728,661.95237,0.80149
762.7211,0.14422,662.4345,0.79748
763.2032,0.14121,662.91662,0.79396
763.6854,0.1385,663.39875,0.79078
764.1675,0.13622,663.881,0.78727
764.6496,0.13431,664.36312,0.78243
765.1317,0.13263,664.84525,0.77526
765.6139,0.13103,665.32737,0.76512
766.0959,0.12939,665.8095,0.75196
766.5781,0.12769,666.29162,0.73643
767.0602,0.12597,666.77375,0.71999
767.5424,0.12427,667.256,0.70481
768.0245,0.12262,667.73812,0.69329
768.5066,0.12101,668.22025,0.68712
768.9888,0.11944,668.70237,0.68658
769.4708,0.11795,669.1845,0.69051
769.953,0.11662,669.66662,0.6971
770.4351,0.11554,670.14875,0.70458
770.9172,0.11478,670.631,0.7116
771.3994,0.11431,671.11312,0.71714
771.8815,0.11402,671.59525,0.72049
772.3636,0.11374,672.07737,0.72128
772.8457,0.1133,672.5595,0.71957
773.3279,0.11262,673.04162,0.71593
773.8099,0.11173,673.52375,0.71131
774.2921,0.11075,674.006,0.70669
774.7742,0.10979,674.48812,0.70279
775.2563,0.10895,674.97025,0.69981
775.7385,0.10821,675.45237,0.69746
776.2206,0.10751,675.9345,0.69522
776.7028,0.10676,676.41662,0.69266
777.1848,0.10592,676.89875,0.68971
777.667,0.10503,677.381,0.68665
778.1491,0.10421,677.86312,0.68398
778.6312,0.10359,678.34525,0.68205
779.1133,0.10324,678.82737,0.68082
779.5955,0.10317,679.3095,0.67985
780.0776,0.10327,679.79162,0.67851
780.5597,0.10341,680.27375,0.67619
